timestamp,value
0,4095
10,4095
20,4095
30,4095
40,4095
50,3002
60,3015
70,2930
80,2982
90,2719
100,2807
110,2386
120,2891
130,3744
140,3139
150,1334
160,2225
170,1883
180,2063
190,1616
200,1973
210,1503
220,1903
230,1383
240,1822
250,1306
260,1788
270,1257
280,1829
290,1216
300,1827
310,1200
320,1799
330,1212
340,1898
350,1168
360,1820
370,955
380,1617
390,692
400,1415
410,528
420,1303
430,457
440,1335
450,427
460,1285
470,346
480,1271
490,330
500,1283
510,253
520,1277
530,240
540,1287
550,270
560,1322
570,206
580,1344
590,257
600,1583
610,311
620,1603
630,293
640,1457
650,167
660,1498
670,197
680,1571
690,207
700,1628
710,257
720,1763
730,273
740,1811
750,272
760,1843
770,310
780,1952
790,484
800,3339
810,1535
820,1696
830,225
840,2253
850,416
860,2229
870,453
880,2320
890,464
900,2395
910,498
920,2494
930,595
940,2623
950,642
960,2739
970,711
980,2830
990,763
1000,3524
1010,3472
1020,3431
1030,3376
1040,3333
1050,1424
1060,3606
1070,1228
1080,3430
1090,1091
1100,3341
1110,941
1120,3287
1130,871
1140,3235
1150,784
1160,3167
1170,704
1180,3119
1190,666
1200,3062
1210,551
1220,3022
1230,490
1240,2997
1250,461
1260,2967
1270,400
1280,3006
1290,505
1300,3071
1310,464
1320,3067
1330,350
1340,2978
1350,327
1360,2999
1370,320
1380,3071
1390,339
1400,3111
1410,353
1420,3181
1430,408
1440,3213
1450,414
1460,3252
1470,383
1480,3403
1490,1337
1500,4095
1510,256
1520,3037
1530,466
1540,3327
1550,373
1560,3354
1570,372
1580,3390
1590,416
1600,3455
1610,461
1620,3559
1630,507
1640,3639
1650,548
1660,3755
1670,593
1680,3852
1690,618
1700,3888
1710,573
1720,3775
1730,451
1740,3545
1750,267
1760,3391
1770,161
1780,3315
1790,140
1800,3358
1810,177
1820,3389
1830,176
1840,3470
1850,187
1860,3458
1870,186
1880,3515
1890,208
1900,3511
1910,208
1920,3538
1930,231
1940,3575
1950,208
1960,3552
1970,210
1980,3635
1990,304
2000,2350
2010,2277
2020,2230
2030,2183
2040,2141
2050,875
2060,4095
2070,983
2080,4095
2090,880
2100,4095
2110,720
2120,4095
2130,624
2140,4095
2150,503
2160,4095
2170,442
2180,4095
2190,1215
2200,4095
2210,460
2220,3315
2230,349
2240,3735
2250,182
2260,3738
2270,176
2280,3787
2290,308
2300,4087
2310,406
2320,4095
2330,511
2340,4095
2350,645
2360,4095
2370,801
2380,4095
2390,913
2400,4095
2410,909
2420,4095
2430,842
2440,4095
2450,767
2460,4095
2470,593
2480,4095
2490,537
2500,4095
2510,528
2520,4095
2530,486
2540,4095
2550,475
2560,4095
2570,470
2580,4095
2590,500
2600,4095
2610,470
2620,4095
2630,400
2640,3950
2650,281
2660,3799
2670,218
2680,3686
2690,293
2700,3785
2710,201
2720,3698
2730,127
2740,3418
2750,16
2760,3435
2770,80
2780,3477
2790,131
2800,3541
2810,144
2820,3602
2830,224
2840,3599
2850,245
2860,3669
2870,246
2880,3606
2890,667
2900,4095
2910,1042
2920,2896
2930,347
2940,3718
2950,317
2960,3661
2970,346
2980,3715
2990,384
3000,1600
3010,1566
3020,1552
3030,1507
3040,1475
3050,1403
3060,4095
3070,1660
3080,4095
3090,1674
3100,4095
3110,1535
3120,4095
3130,1286
3140,4095
3150,976
3160,4007
3170,698
3180,3734
3190,568
3200,3578
3210,531
3220,3497
3230,523
3240,3466
3250,461
3260,3404
3270,454
3280,3376
3290,442
3300,3279
3310,421
3320,3243
3330,435
3340,3194
3350,335
3360,3151
3370,368
3380,3041
3390,369
3400,3095
3410,462
3420,3071
3430,442
3440,3019
3450,331
3460,2822
3470,309
3480,2873
3490,325
3500,2864
3510,336
3520,2838
3530,357
3540,2839
3550,382
3560,2848
3570,432
3580,2882
3590,492
3600,2961
3610,1507
3620,4095
3630,463
3640,2517
3650,727
3660,2868
3670,637
3680,2886
3690,691
3700,2875
3710,738
3720,2939
3730,818
3740,2989
3750,880
3760,3027
3770,990
3780,3120
3790,1130
3800,3243
3810,1264
3820,3291
3830,1297
3840,3216
3850,1233
3860,3040
3870,1068
3880,2869
3890,960
3900,2797
3910,966
3920,2797
3930,997
3940,2776
3950,1057
3960,2794
3970,1117
3980,2773
3990,1149
4000,831
4010,833
4020,832
4030,831
4040,850
4050,1945
4060,3404
4070,1989
4080,3325
4090,2000
4100,3371
4110,1968
4120,3184
4130,1802
4140,2943
4150,1524
4160,2767
4170,1450
4180,2649
4190,1366
4200,2559
4210,1371
4220,2501
4230,1337
4240,2443
4250,1321
4260,2398
4270,1310
4280,2335
4290,1439
4300,3369
4310,2544
4320,1756
4330,1142
4340,2319
4350,1325
4360,64
4370,49
4380,39
4390,31
4400,17
4410,1401
4420,2197
4430,1471
4440,2246
4450,1561
4460,2302
4470,1712
4480,2426
4490,1855
4500,2521
4510,1993
4520,2551
4530,2032
4540,2527
4550,1934
4560,2352
4570,1808
4580,2235
4590,1810
4600,2258
4610,1903
4620,2259
4630,1977
4640,2320
4650,2038
4660,2297
4670,2071
4680,2256
4690,2075
4700,2239
4710,2039
4720,2181
4730,2061
4740,2167
4750,2090
4760,2112
4770,2106
4780,2080
4790,2081
4800,2128
4810,2229
4820,2064
4830,2221
4840,1987
4850,2055
4860,1826
4870,2063
4880,1830
4890,2089
4900,1817
4910,2118
4920,1777
4930,2160
4940,1781
4950,2160
4960,1762
4970,2215
4980,1712
4990,2217
5000,1095
5010,1156
5020,1109
5030,1189
5040,1212
5050,2910
5060,2313
5070,2958
5080,2271
5090,2925
5100,2160
5110,2850
5120,2061
5130,2752
5140,1963
5150,2736
5160,1899
5170,2704
5180,1854
5190,2739
5200,1809
5210,2721
5220,1723
5230,2682
5240,1625
5250,2506
5260,1372
5270,2290
5280,1168
5290,2202
5300,1086
5310,2189
5320,1069
5330,2270
5340,1056
5350,2267
5360,1066
5370,2275
5380,1017
5390,2325
5400,1018
5410,2363
5420,991
5430,2361
5440,946
5450,2389
5460,993
5470,2416
5480,948
5490,2465
5500,1126
5510,2559
5520,1065
5530,2619
5540,974
5550,2513
5560,951
5570,2559
5580,922
5590,2597
5600,889
5610,2594
5620,880
5630,2615
5640,869
5650,2631
5660,866
5670,2657
5680,825
5690,2796
5700,1845
5710,4095
5720,419
5730,2441
5740,914
5750,2743
5760,784
5770,2783
5780,794
5790,2834
5800,805
5810,2864
5820,817
5830,2942
5840,872
5850,3041
5860,922
5870,3147
5880,999
5890,3253
5900,1021
5910,3215
5920,1005
5930,3186
5940,898
5950,3054
5960,726
5970,2901
5980,563
5990,2852
6000,1719
6010,1781
6020,1813
6030,1856
6040,1894
6050,3723
6060,1309
6070,3875
6080,1263
6090,3811
6100,1155
6110,3708
6120,1074
6130,3600
6140,911
6150,3433
6160,774
6170,3330
6180,735
6190,3357
6200,656
6210,3280
6220,530
6230,3049
6240,308
6250,2934
6260,267
6270,2894
6280,166
6290,2865
6300,113
6310,2828
6320,130
6330,2855
6340,132
6350,2861
6360,119
6370,2896
6380,327
6390,4095
6400,1423
6410,2448
6420,48
6430,3174
6440,186
6450,3097
6460,234
6470,3125
6480,263
6490,3222
6500,284
6510,3312
6520,313
6530,3362
6540,354
6550,3419
6560,415
6570,3504
6580,453
6590,3554
6600,454
6610,3573
6620,400
6630,3395
6640,215
6650,3219
6660,99
6670,3147
6680,43
6690,3145
6700,38
6710,3133
6720,53
6730,3171
6740,38
6750,3158
6760,6
6770,3174
6780,39
6790,3227
6800,59
6810,3211
6820,68
6830,3255
6840,67
6850,3293
6860,41
6870,3280
6880,115
6890,3390
6900,258
6910,3567
6920,230
6930,3472
6940,84
6950,3355
6960,80
6970,3423
6980,121
6990,3453
7000,2768
7010,2819
7020,2858
7030,2880
7040,2944
7050,4095
7060,939
7070,4095
7080,865
7090,4095
7100,2115
7110,4095
7120,545
7130,3953
7140,624
7150,4095
7160,449
7170,4001
7180,399
7190,3943
7200,368
7210,3882
7220,327
7230,3888
7240,331
7250,3919
7260,355
7270,3968
7280,377
7290,3989
7300,432
7310,3990
7320,368
7330,3843
7340,214
7350,3537
7360,13
7370,3328
7380,0
7390,3266
7400,0
7410,3260
7420,0
7430,3273
7440,0
7450,3323
7460,0
7470,3347
7480,0
7490,3361
7500,0
7510,3350
7520,43
7530,3345
7540,52
7550,3274
7560,18
7570,3264
7580,16
7590,3263
7600,0
7610,3438
7620,39
7630,3396
7640,18
7650,3254
7660,0
7670,3268
7680,45
7690,3353
7700,59
7710,3383
7720,102
7730,3407
7740,147
7750,3479
7760,149
7770,3493
7780,170
7790,3535
7800,228
7810,4095
7820,1787
7830,3651
7840,0
7850,3559
7860,309
7870,3490
7880,271
7890,3570
7900,346
7910,3647
7920,432
7930,3721
7940,462
7950,3803
7960,564
7970,3906
7980,625
7990,4001
8000,4095
8010,4095
8020,4095
8030,4095
8040,4095
8050,4095
8060,1489
8070,4095
8080,1248
8090,4095
8100,1003
8110,4085
8120,769
8130,3888
8140,708
8150,3776
8160,682
8170,3630
8180,620
8190,3504
8200,502
8210,3399
8220,474
8230,3318
8240,423
8250,3280
8260,430
8270,3194
8280,320
8290,3166
8300,387
8310,3241
8320,545
8330,3248
8340,525
8350,3206
8360,403
8370,3042
8380,378
8390,3041
8400,400
8410,3058
8420,423
8430,3024
8440,450
8450,3041
8460,487
8470,3105
8480,534
8490,3126
8500,594
8510,3152
8520,1352
8530,4095
8540,834
8550,2592
8560,786
8570,3118
8580,715
8590,3116
8600,803
8610,3177
8620,842
8630,3199
8640,1681
8650,1628
8660,1587
8670,1535
8680,1495
8690,1434
8700,1415
8710,1372
8720,1214
8730,3407
8740,1245
8750,3344
8760,1146
8770,3184
8780,1063
8790,2979
8800,927
8810,2885
8820,841
8830,2869
8840,867
8850,2855
8860,934
8870,2867
8880,1005
8890,2915
8900,1021
8910,2944
8920,1100
8930,2917
8940,1166
8950,2869
8960,1161
8970,2857
8980,1194
8990,2835
9000,4095
9010,4095
9020,4095
9030,4095
9040,4095
9050,3375
9060,1934
9070,3211
9080,1808
9090,3139
9100,1682
9110,3053
9120,1591
9130,2967
9140,1505
9150,2864
9160,1450
9170,2789
9180,1434
9190,2690
9200,1467
9210,2667
9220,2096
9230,4044
9240,1426
9250,2042
9260,1458
9270,2494
9280,1355
9290,2468
9300,1422
9310,2495
9320,1535
9330,2515
9340,1584
9350,2554
9360,1656
9370,2557
9380,1759
9390,2629
9400,1854
9410,2675
9420,1936
9430,2701
9440,1933
9450,2641
9460,1841
9470,2434
9480,1689
9490,2219
9500,1552
9510,2099
9520,1530
9530,2058
9540,1579
9550,2077
9560,1591
9570,2081
9580,1664
9590,2015
9600,1686
9610,2033
9620,1665
9630,2041
9640,1594
9650,2031
9660,1790
9670,1954
9680,1829
9690,1961
9700,1847
9710,1927
9720,1875
9730,1921
9740,2044
9750,2003
9760,2012
9770,1890
9780,1930
9790,1680
9800,1872
9810,1673
9820,1931
9830,1622
9840,2003
9850,1632
9860,1968
9870,1557
9880,2026
9890,1521
9900,2010
9910,1535
9920,2057
9930,1459
9940,2642
9950,3024
9960,2299
9970,818
9980,2127
9990,1287
10000,4095
10010,4095
10020,4095
10030,4095
10040,4095
10050,2112
10060,3203
10070,2267
10080,3445
10090,2309
10100,3600
10110,2277
10120,3712
10130,2347
10140,3765
10150,2325
10160,3746
10170,2275
10180,3650
10190,2027
10200,3376
10210,1741
10220,3328
10230,1621
10240,3339
10250,1660
10260,3431
10270,1679
10280,3481
10290,1759
10300,3447
10310,1677
10320,3241
10330,1700
10340,3397
10350,1351
10360,3258
10370,1082
10380,3120
10390,725
10400,2789
10410,340
10420,2357
10430,0
10440,1901
10450,0
10460,1795
10470,0
10480,1482
10490,0
10500,889
10510,0
10520,357
10530,0
10540,208
10550,0
10560,70
10570,0
10580,0
10590,0
10600,0
10610,0
10620,0
10630,0
10640,16
10650,0
10660,250
10670,0
10680,2095
10690,0
10700,0
10710,0
10720,779
10730,0
10740,937
10750,0
10760,1117
10770,0
10780,1296
10790,0
10800,1533
10810,0
10820,1826
10830,0
10840,2200
10850,0
10860,2539
10870,147
10880,2800
10890,405
10900,2978
10910,429
10920,2943
10930,405
10940,2867
10950,540
10960,2727
10970,678
10980,2861
10990,741
11000,3809
11010,3755
11020,3704
11030,3664
11040,3615
11050,1906
11060,4095
11070,2199
11080,4095
11090,2731
11100,4095
11110,3095
11120,4095
11130,3131
11140,4095
11150,3033
11160,4095
11170,3136
11180,4095
11190,3016
11200,4095
11210,2625
11220,4095
11230,2355
11240,4095
11250,2245
11260,4095
11270,2162
11280,4095
11290,1920
11300,4095
11310,1619
11320,4095
11330,1371
11340,3982
11350,1147
11360,3743
11370,1806
11380,4095
11390,966
11400,2965
11410,769
11420,3190
11430,609
11440,3136
11450,549
11460,3110
11470,574
11480,3189
11490,607
11500,3227
11510,631
11520,3265
11530,683
11540,3363
11550,784
11560,3491
11570,835
11580,3632
11590,850
11600,3525
11610,752
11620,3456
11630,620
11640,3257
11650,532
11660,3209
11670,565
11680,3242
11690,571
11700,3327
11710,633
11720,3327
11730,635
11740,3392
11750,679
11760,3411
11770,659
11780,3440
11790,688
11800,3347
11810,673
11820,3407
11830,650
11840,3421
11850,640
11860,3333
11870,630
11880,3435
11890,625
11900,3353
11910,559
11920,3188
11930,308
11940,3052
11950,271
11960,3005
11970,270
11980,2992
11990,208
12000,2156
12010,2114
12020,2069
12030,2032
12040,1989
12050,860
12060,3969
12070,1022
12080,4095
12090,2812
12100,3437
12110,422
12120,3886
12130,641
12140,3429
12150,501
12160,3299
12170,448
12180,3248
12190,374
12200,3218
12210,365
12220,3206
12230,333
12240,3215
12250,394
12260,3312
12270,469
12280,3344
12290,468
12300,3322
12310,406
12320,3229
12330,227
12340,2965
12350,78
12360,2842
12370,16
12380,2838
12390,17
12400,2857
12410,42
12420,2874
12430,48
12440,2889
12450,68
12460,2896
12470,64
12480,2930
12490,110
12500,2928
12510,96
12520,2963
12530,108
12540,2942
12550,112
12560,2935
12570,155
12580,3088
12590,315
12600,3103
12610,295
12620,3060
12630,123
12640,2041
12650,1997
12660,1952
12670,1911
12680,1868
12690,177
12700,3223
12710,178
12720,3367
12730,145
12740,3583
12750,23
12760,3775
12770,0
12780,4095
12790,1241
12800,4095
12810,16
12820,4095
12830,433
12840,4095
12850,880
12860,4095
12870,1447
12880,4095
12890,2097
12900,4095
12910,2923
12920,4095
12930,4095
12940,4095
12950,4095
12960,4095
12970,4095
12980,4095
12990,4095
13000,4095
13010,4095
13020,4095
13030,4095
13040,4095
13050,4095
13060,4095
13070,4095
13080,4095
13090,4095
13100,4095
13110,4095
13120,4095
13130,4095
13140,4095
13150,4095
13160,4095
13170,4095
13180,4095
13190,3869
13200,4095
13210,2229
13220,4095
13230,1419
13240,4095
13250,752
13260,4095
13270,231
13280,4063
13290,80
13300,3862
13310,0
13320,3408
13330,0
13340,2919
13350,0
13360,2554
13370,0
13380,2409
13390,0
13400,2294
13410,0
13420,2226
13430,0
13440,2179
13450,0
13460,2155
13470,0
13480,2112
13490,0
13500,2730
13510,547
13520,2411
13530,0
13540,1781
13550,0
13560,2000
13570,0
13580,1940
13590,0
13600,1965
13610,0
13620,2034
13630,0
13640,2055
13650,0
13660,2087
13670,0
13680,2130
13690,0
13700,2252
13710,0
13720,2365
13730,0
13740,2255
13750,0
13760,2108
13770,0
13780,2064
13790,0
13800,2169
13810,0
13820,2268
13830,0
13840,2385
13850,11
13860,2480
13870,19
13880,2589
13890,0
13900,2690
13910,28
13920,2690
13930,75
13940,2724
13950,93
13960,2688
13970,65
13980,2681
13990,121
14000,0
14010,0
14020,0
14030,0
14040,0
14050,1168
14060,3398
14070,1152
14080,3286
14090,1110
14100,3180
14110,1074
14120,3069
14130,941
14140,2887
14150,839
14160,2732
14170,757
14180,2543
14190,647
14200,2317
14210,565
14220,2603
14230,1987
14240,2423
14250,129
14260,1840
14270,583
14280,1927
14290,528
14300,1907
14310,576
14320,1959
14330,617
14340,1994
14350,464
14360,2138
14370,827
14380,2141
14390,948
14400,2261
14410,1060
14420,2320
14430,1137
14440,2294
14450,1077
14460,2207
14470,922
14480,1986
14490,809
14500,1758
14510,751
14520,1679
14530,746
14540,1658
14550,806
14560,1621
14570,845
14580,1613
14590,886
14600,1658
14610,925
14620,1663
14630,973
14640,1625
14650,1006
14660,1655
14670,1058
14680,1670
14690,1147
14700,1657
14710,1151
14720,1687
14730,1334
14740,1743
14750,1377
14760,1680
14770,1260
14780,1487
14790,1227
14800,1488
14810,1265
14820,1470
14830,1358
14840,1478
14850,1430
14860,1520
14870,1489
14880,1583
14890,1582
14900,1599
14910,1647
14920,1606
14930,2349
14940,3203
14950,1867
14960,1201
14970,1887
14980,1680
14990,1855
15000,704
15010,720
15020,752
15030,788
15040,807
15050,3203
15060,2890
15070,3502
15080,2858
15090,3526
15100,2804
15110,3506
15120,2709
15130,3354
15140,2559
15150,3216
15160,2390
15170,3023
15180,2083
15190,2769
15200,1785
15210,2557
15220,1573
15230,2448
15240,1491
15250,2448
15260,1461
15270,2453
15280,1446
15290,2502
15300,1426
15310,2543
15320,1379
15330,2544
15340,1338
15350,2594
15360,1317
15370,2631
15380,1280
15390,2653
15400,1236
15410,2687
15420,1205
15430,2796
15440,1337
15450,2794
15460,1232
15470,2690
15480,955
15490,2550
15500,926
15510,2624
15520,930
15530,2691
15540,919
15550,2725
15560,887
15570,2769
15580,900
15590,2870
15600,977
15610,2917
15620,976
15630,3366
15640,2699
15650,3793
15660,304
15670,2812
15680,896
15690,3115
15700,855
15710,3120
15720,829
15730,3099
15740,843
15750,3206
15760,848
15770,3301
15780,919
15790,3445
15800,999
15810,3558
15820,1036
15830,3648
15840,1034
15850,3712
15860,986
15870,3602
15880,769
15890,3328
15900,481
15910,3104
15920,335
15930,3027
15940,315
15950,3063
15960,298
15970,3115
15980,314
15990,3216
16000,1535
16010,1621
16020,1680
16030,1739
16040,1795
16050,4095
16060,1518
16070,4095
16080,1520
16090,4095
16100,1308
16110,4095
16120,1094
16130,4095
16140,1004
16150,4095
16160,746
16170,4095
16180,383
16190,3797
16200,266
16210,3695
16220,175
16230,3568
16240,81
16250,3519
16260,1
16270,3514
16280,0
16290,3465
16300,0
16310,3481
16320,0
16330,4095
16340,1853
16350,3882
16360,0
16370,3551
16380,0
16390,3746
16400,0
16410,3881
16420,33
16430,4053
16440,62
16450,4095
16460,115
16470,4095
16480,164
16490,4095
16500,144
16510,4095
16520,138
16530,4095
16540,80
16550,4095
16560,0
16570,0
16580,0
16590,0
16600,0
16610,3376
16620,0
16630,3328
16640,0
16650,3319
16660,0
16670,3393
16680,0
16690,3443
16700,0
16710,3520
16720,0
16730,3535
16740,0
16750,3663
16760,0
16770,3633
16780,0
16790,3694
16800,0
16810,3759
16820,0
16830,4095
16840,0
16850,4095
16860,0
16870,3878
16880,0
16890,3843
16900,0
16910,3981
16920,0
16930,4095
16940,0
16950,4095
16960,0
16970,4095
16980,0
16990,4095
17000,3164
17010,3210
17020,3254
17030,3298
17040,3341
17050,4095
17060,433
17070,4095
17080,1059
17090,4095
17100,806
17110,4095
17120,691
17130,4095
17140,547
17150,4095
17160,403
17170,4095
17180,293
17190,4095
17200,270
17210,4095
17220,208
17230,4095
17240,130
17250,4095
17260,0
17270,4095
17280,0
17290,4095
17300,0
17310,4095
17320,0
17330,3849
17340,0
17350,3728
17360,0
17370,3709
17380,0
17390,3735
17400,0
17410,3762
17420,0
17430,3684
17440,0
17450,3695
17460,0
17470,3732
17480,0
17490,3712
17500,0
17510,3758
17520,0
17530,4045
17540,0
17550,3956
17560,0
17570,3599
17580,0
17590,3503
17600,0
17610,3501
17620,0
17630,3536
17640,0
17650,3583
17660,0
17670,3727
17680,0
17690,3955
17700,0
17710,3958
17720,0
17730,4095
17740,637
17750,3470
17760,0
17770,4095
17780,0
17790,4095
17800,0
17810,4095
17820,0
17830,4095
17840,0
17850,4095
17860,0
17870,4095
17880,0
17890,4095
17900,0
17910,4095
17920,0
17930,4095
17940,0
17950,4095
17960,0
17970,4095
17980,0
17990,4095
18000,4095
18010,4095
18020,4095
18030,4095
18040,4095
18050,4095
18060,720
18070,4095
18080,844
18090,4095
18100,769
18110,4095
18120,595
18130,4095
18140,430
18150,4095
18160,288
18170,4095
18180,101
18190,4095
18200,21
18210,4095
18220,3
18230,4095
18240,45
18250,4095
18260,0
18270,4062
18280,0
18290,3890
18300,0
18310,3835
18320,0
18330,3930
18340,0
18350,3842
18360,0
18370,3867
18380,0
18390,3841
18400,15
18410,3813
18420,54
18430,4095
18440,1467
18450,3420
18460,0
18470,3655
18480,96
18490,3759
18500,93
18510,3746
18520,130
18530,3749
18540,208
18550,3733
18560,299
18570,3755
18580,354
18590,3753
18600,432
18610,3786
18620,443
18630,3827
18640,427
18650,3889
18660,294
18670,3875
18680,242
18690,3702
18700,319
18710,3539
18720,325
18730,3487
18740,352
18750,3492
18760,432
18770,3487
18780,454
18790,3493
18800,444
18810,3504
18820,465
18830,3501
18840,550
18850,3467
18860,594
18870,3439
18880,640
18890,3392
18900,640
18910,3395
18920,670
18930,3404
18940,791
18950,3425
18960,837
18970,3414
18980,746
18990,3301
19000,4095
19010,4095
19020,4095
19030,4095
19040,4095
19050,4019
19060,1918
19070,4031
19080,1991
19090,3952
19100,1904
19110,3775
19120,1738
19130,3632
19140,2151
19150,4095
19160,1889
19170,2704
19180,1251
19190,3182
19200,1107
19210,3024
19220,1088
19230,2948
19240,1061
19250,2915
19260,1104
19270,2878
19280,1104
19290,2849
19300,1168
19310,2854
19320,1239
19330,2891
19340,1360
19350,2897
19360,1184
19370,2902
19380,1255
19390,2613
19400,1063
19410,2390
19420,930
19430,2255
19440,982
19450,2199
19460,1038
19470,2242
19480,1045
19490,2273
19500,1158
19510,2229
19520,1200
19530,2196
19540,1232
19550,2221
19560,1269
19570,2192
19580,1284
19590,2148
19600,1344
19610,2113
19620,1349
19630,2187
19640,1563
19650,2258
19660,1622
19670,2246
19680,1591
19690,2096
19700,1571
19710,2082
19720,1392
19730,2183
19740,1680
19750,2059
19760,1745
19770,2045
19780,1805
19790,2079
19800,1878
19810,2097
19820,1968
19830,2094
19840,2416
19850,3678
19860,2703
19870,1410
19880,2082
19890,2103
19900,2224
19910,2055
19920,2288
19930,2077
19940,2352
19950,2091
19960,2448
19970,2142
19980,2525
19990,2174
20000,4095
20010,4095
20020,4095
20030,4095
20040,4095
20050,3170
20060,4095
20070,3245
20080,4095
20090,2986
20100,3751
20110,2629
20120,3363
20130,2366
20140,3184
20150,2240
20160,3120
20170,2150
20180,3103
20190,2160
20200,3089
20210,2037
20220,3101
20230,1931
20240,3033
20250,1829
20260,2992
20270,1808
20280,3029
20290,1692
20300,3028
20310,1617
20320,3037
20330,1680
20340,3167
20350,1597
20360,3151
20370,1455
20380,2970
20390,1264
20400,2886
20410,1216
20420,2902
20430,1133
20440,2866
20450,1033
20460,2896
20470,1058
20480,2956
20490,1050
20500,3035
20510,999
20520,3941
20530,3935
20540,3935
20550,3925
20560,3961
20570,631
20580,3107
20590,802
20600,3037
20610,769
20620,3099
20630,778
20640,3169
20650,816
20660,3294
20670,871
20680,3440
20690,934
20700,3557
20710,1001
20720,3760
20730,1083
20740,3857
20750,1072
20760,3887
20770,999
20780,3751
20790,720
20800,3392
20810,433
20820,3213
20830,257
20840,3062
20850,199
20860,3051
20870,130
20880,3056
20890,108
20900,3130
20910,98
20920,3159
20930,135
20940,3276
20950,116
20960,3280
20970,67
20980,3287
20990,26
21000,3622
21010,3558
21020,3497
21030,3445
21040,3391
21050,1147
21060,4095
21070,1082
21080,4095
21090,973
21100,4095
21110,771
21120,4095
21130,570
21140,4095
21150,384
21160,4095
21170,236
21180,4048
21190,32
21200,3863
21210,0
21220,4095
21230,1798
21240,3281
21250,0
21260,3506
21270,0
21280,3385
21290,0
21300,3395
21310,0
21320,3465
21330,0
21340,3477
21350,0
21360,3538
21370,0
21380,3719
21390,0
21400,3998
21410,0
21420,4095
21430,0
21440,4095
21450,0
21460,3983
21470,0
21480,3618
21490,0
21500,3378
21510,0
21520,3378
21530,0
21540,3433
21550,0
21560,3468
21570,0
21580,3510
21590,0
21600,3537
21610,0
21620,3612
21630,0
21640,3595
21650,0
21660,3601
21670,0
21680,3633
21690,0
21700,3991
21710,0
21720,3922
21730,0
21740,3663
21750,0
21760,3456
21770,0
21780,3517
21790,0
21800,3538
21810,0
21820,3618
21830,0
21840,3734
21850,0
21860,3830
21870,0
21880,3922
21890,0
21900,4095
21910,1148
21920,4095
21930,0
21940,4048
21950,0
21960,4095
21970,0
21980,4095
21990,0
22000,2241
22010,2201
22020,2147
22030,2094
22040,2031
22050,726
22060,4095
22070,1086
22080,4095
22090,1120
22100,4095
22110,931
22120,4095
22130,624
22140,4095
22150,204
22160,4095
22170,0
22180,4095
22190,0
22200,4095
22210,0
22220,4095
22230,0
22240,3947
22250,0
22260,3883
22270,0
22280,3822
22290,0
22300,3867
22310,0
22320,3920
22330,0
22340,3891
22350,0
22360,3932
22370,0
22380,3984
22390,0
22400,4095
22410,0
22420,4095
22430,0
22440,3883
22450,0
22460,3856
22470,0
22480,3854
22490,0
22500,3996
22510,0
22520,4095
22530,0
22540,4095
22550,0
22560,4095
22570,0
22580,4095
22590,0
22600,4095
22610,1413
22620,3793
22630,0
22640,4095
22650,0
22660,4095
22670,0
22680,4095
22690,0
22700,4095
22710,13
22720,4095
22730,55
22740,4095
22750,112
22760,4095
22770,257
22780,4095
22790,336
22800,4095
22810,369
22820,4095
22830,368
22840,4095
22850,169
22860,4095
22870,94
22880,4034
22890,51
22900,3971
22910,37
22920,3966
22930,108
22940,3952
22950,161
22960,3949
22970,154
22980,3935
22990,222
23000,800
23010,761
23020,737
23030,709
23040,688
23050,1103
23060,4095
23070,1331
23080,4095
23090,1399
23100,4095
23110,1302
23120,4095
23130,1054
23140,4016
23150,723
23160,3913
23170,599
23180,3813
23190,539
23200,3701
23210,482
23220,3573
23230,475
23240,3528
23250,466
23260,3473
23270,479
23280,3391
23290,543
23300,4058
23310,1997
23320,3057
23330,308
23340,3221
23350,579
23360,3247
23370,587
23380,3229
23390,619
23400,3185
23410,671
23420,3191
23430,717
23440,3206
23450,789
23460,3221
23470,879
23480,3288
23490,971
23500,3298
23510,1034
23520,3254
23530,1007
23540,3101
23550,853
23560,2915
23570,753
23580,2726
23590,753
23600,2656
23610,763
23620,2653
23630,849
23640,2676
23650,962
23660,2704
23670,991
23680,2704
23690,1046
23700,2680
23710,1063
23720,2650
23730,1087
23740,2603
23750,1103
23760,2555
23770,1127
23780,2555
23790,1313
23800,2559
23810,1295
23820,2512
23830,1225
23840,2323
23850,1201
23860,2294
23870,1264
23880,2277
23890,1337
23900,2279
23910,1360
23920,2235
23930,1408
23940,2210
23950,1495
23960,2215
23970,1535
23980,2211
23990,1973
24000,411
24010,427
24020,441
24030,461
24040,478
24050,2559
24060,3088
24070,2857
24080,3051
24090,2895
24100,2992
24110,2847
24120,2809
24130,2737
24140,2689
24150,2646
24160,2531
24170,2617
24180,2485
24190,2527
24200,2355
24210,2494
24220,2218
24230,2353
24240,1904
24250,2064
24260,1588
24270,1811
24280,1415
24290,1781
24300,1327
24310,1822
24320,1260
24330,1859
24340,1242
24350,1900
24360,1218
24370,1979
24380,1191
24390,2010
24400,1150
24410,2003
24420,1088
24430,2059
24440,1051
24450,2037
24460,981
24470,1998
24480,903
24490,2027
24500,2
24510,48
24520,80
24530,113
24540,148
24550,2224
24560,731
24570,2135
24580,691
24590,2188
24600,676
24610,2253
24620,665
24630,2225
24640,599
24650,2279
24660,581
24670,2363
24680,614
24690,2435
24700,640
24710,2729
24720,1770
24730,4095
24740,324
24750,2315
24760,656
24770,2759
24780,560
24790,2754
24800,593
24810,2864
24820,601
24830,2981
24840,648
24850,3104
24860,685
24870,3237
24880,766
24890,3429
24900,912
24910,3449
24920,1015
24930,3481
24940,944
24950,3564
24960,619
24970,3313
24980,341
24990,3099
25000,1371
25010,1445
25020,1502
25030,1567
25040,1616
25050,4095
25060,1360
25070,4095
25080,1343
25090,4095
25100,1253
25110,4095
25120,991
25130,4095
25140,751
25150,4095
25160,532
25170,4048
25180,353
25190,3808
25200,189
25210,3632
25220,64
25230,3520
25240,0
25250,3454
25260,0
25270,3702
25280,0
25290,3707
25300,0
25310,3396
25320,0
25330,3291
25340,0
25350,3344
25360,0
25370,3410
25380,0
25390,3454
25400,0
25410,3505
25420,0
25430,3561
25440,0
25450,3583
25460,0
25470,4095
25480,1535
25490,3755
25500,0
25510,3696
25520,0
25530,3824
25540,0
25550,3950
25560,0
25570,4093
25580,0
25590,4095
25600,0
25610,4095
25620,0
25630,4095
25640,0
25650,4095
25660,32
25670,4095
25680,90
25690,4095
25700,16
25710,4095
25720,0
25730,4095
25740,0
25750,4095
25760,0
25770,3955
25780,0
25790,4095
25800,0
25810,4095
25820,0
25830,4095
25840,0
25850,4095
25860,0
25870,4095
25880,0
25890,4095
25900,0
25910,4095
25920,0
25930,4095
25940,0
25950,4095
25960,0
25970,4095
25980,0
25990,4095
26000,3386
26010,3473
26020,3536
26030,3623
26040,3648
26050,4095
26060,675
26070,4095
26080,705
26090,4095
26100,564
26110,4095
26120,384
26130,4095
26140,141
26150,4095
26160,4
26170,4095
26180,0
26190,4095
26200,23
26210,4095
26220,1120
26230,3723
26240,0
26250,4095
26260,0
26270,4095
26280,0
26290,4095
26300,0
26310,4095
26320,0
26330,4095
26340,0
26350,4095
26360,0
26370,4095
26380,0
26390,4095
26400,0
26410,4095
26420,0
26430,4095
26440,0
26450,4095
26460,0
26470,4095
26480,0
26490,4041
26500,0
26510,3985
26520,0
26530,4064
26540,0
26550,4048
26560,0
26570,4082
26580,0
26590,4095
26600,0
26610,4095
26620,0
26630,4095
26640,0
26650,4095
26660,0
26670,4095
26680,9
26690,4095
26700,70
26710,4095
26720,127
26730,4095
26740,290
26750,4095
26760,283
26770,4095
26780,139
26790,4095
26800,144
26810,4095
26820,178
26830,4095
26840,197
26850,4095
26860,194
26870,4095
26880,195
26890,4083
26900,234
26910,4032
26920,262
26930,4095
26940,1843
26950,3712
26960,113
26970,3831
26980,275
26990,3746
27000,4095
27010,4095
27020,4095
27030,4095
27040,4095
27050,4095
27060,1346
27070,4095
27080,1435
27090,4095
27100,1440
27110,4095
27120,1361
27130,4095
27140,1199
27150,4010
27160,1022
27170,3742
27180,679
27190,3470
27200,471
27210,3209
27220,359
27230,3011
27240,325
27250,2925
27260,352
27270,2873
27280,373
27290,2807
27300,400
27310,2755
27320,406
27330,2748
27340,473
27350,2735
27360,496
27370,2691
27380,547
27390,2672
27400,551
27410,2623
27420,581
27430,2603
27440,661
27450,2726
27460,779
27470,2672
27480,791
27490,2588
27500,673
27510,2446
27520,707
27530,2403
27540,829
27550,2338
27560,894
27570,2339
27580,1001
27590,2333
27600,1009
27610,2328
27620,1013
27630,2304
27640,998
27650,2622
27660,2203
27670,3205
27680,614
27690,2241
27700,1253
27710,2293
27720,1245
27730,2336
27740,1404
27750,2409
27760,1483
27770,2464
27780,1649
27790,2498
27800,1775
27810,2539
27820,1881
27830,2607
27840,2025
27850,2687
27860,2186
27870,2682
27880,1966
27890,2641
27900,2078
27910,2279
27920,1904
27930,2102
27940,1765
27950,1968
27960,1807
27970,1987
27980,1927
27990,1984
28000,4095
28010,4095
28020,4095
28030,4095
28040,4095
28050,2864
28060,3202
28070,2880
28080,3243
28090,2769
28100,3135
28110,2516
28120,2925
28130,2263
28140,2737
28150,2047
28160,2642
28170,1968
28180,2624
28190,1782
28200,2494
28210,1502
28220,2186
28230,1266
28240,2113
28250,1156
28260,2106
28270,1070
28280,2095
28290,971
28300,2096
28310,894
28320,2107
28330,861
28340,2135
28350,820
28360,2169
28370,1125
28380,4095
28390,1840
28400,1872
28410,576
28420,2291
28430,690
28440,2246
28450,631
28460,2321
28470,0
28480,0
28490,0
28500,0
28510,0
28520,2592
28530,649
28540,2704
28550,694
28560,2861
28570,801
28580,3013
28590,807
28600,3054
28610,708
28620,2948
28630,525
28640,2779
28650,375
28660,2704
28670,298
28680,2737
28690,284
28700,2787
28710,266
28720,2871
28730,288
28740,2951
28750,295
28760,2970
28770,253
28780,3039
28790,225
28800,3063
28810,222
28820,3123
28830,175
28840,3183
28850,150
28860,3182
28870,152
28880,3406
28890,347
28900,3483
28910,305
28920,3465
28930,107
28940,3312
28950,31
28960,3403
28970,3
28980,3485
28990,46
29000,3454
29010,3387
29020,3319
29030,3280
29040,3227
29050,1090
29060,4095
29070,1277
29080,4095
29090,2416
29100,4095
29110,1147
29120,4095
29130,645
29140,4095
29150,486
29160,4095
29170,363
29180,4095
29190,198
29200,4095
29210,102
29220,4095
29230,0
29240,4095
29250,0
29260,4095
29270,0
29280,4095
29290,32
29300,4095
29310,0
29320,4095
29330,0
29340,4064
29350,0
29360,3635
29370,0
29380,3452
29390,0
29400,3350
29410,0
29420,3409
29430,0
29440,3438
29450,0
29460,3466
29470,0
29480,3486
29490,0
29500,3629
29510,0
29520,3600
29530,0
29540,3699
29550,0
29560,3694
29570,0
29580,3760
29590,0
29600,4095
29610,0
29620,4095
29630,0
29640,3943
29650,0
29660,3923
29670,0
29680,3947
29690,0
29700,4073
29710,0
29720,4095
29730,0
29740,4095
29750,0
29760,4095
29770,0
29780,4095
29790,0
29800,4095
29810,1296
29820,3737
29830,0
29840,4095
29850,0
29860,4095
29870,0
29880,4095
29890,0
29900,4095
29910,0
29920,4095
29930,0
29940,4095
29950,0
29960,4095
29970,0
29980,4095
29990,0
30000,1840
30010,1787
30020,1761
30030,1683
30040,1638
30050,751
30060,4095
30070,749
30080,4095
30090,578
30100,4095
30110,373
30120,4095
30130,173
30140,4095
30150,0
30160,4095
30170,0
30180,4095
30190,0
30200,4095
30210,0
30220,4095
30230,0
30240,4095
30250,0
30260,4095
30270,0
30280,4095
30290,0
30300,4095
30310,0
30320,4095
30330,0
30340,4080
30350,0
30360,3854
30370,0
30380,3834
30390,0
30400,3814
30410,0
30420,3760
30430,0
30440,3824
30450,0
30460,3887
30470,0
30480,3893
30490,0
30500,4095
30510,1232
30520,4095
30530,0
30540,3718
30550,183
30560,3934
30570,167
30580,3871
30590,181
30600,3895
30610,208
30620,3921
30630,147
30640,4001
30650,363
30660,3968
30670,448
30680,4019
30690,615
30700,4072
30710,752
30720,4095
30730,786
30740,3968
30750,631
30760,3787
30770,496
30780,3610
30790,461
30800,3478
30810,453
30820,3472
30830,479
30840,3453
30850,541
30860,3460
30870,623
30880,3465
30890,721
30900,3482
30910,755
30920,3496
30930,770
30940,3493
30950,857
30960,3440
30970,880
30980,3435
30990,1042
31000,655
31010,640
31020,625
31030,624
31040,624
31050,1885
31060,3983
31070,2107
31080,3906
31090,2040
31100,3747
31110,1927
31120,3645
31130,1786
31140,3422
31150,1657
31160,3279
31170,1530
31180,3117
31190,1664
31200,4095
31210,2613
31220,2317
31230,1167
31240,2864
31250,1339
31260,2706
31270,1253
31280,2652
31290,1287
31300,2559
31310,1319
31320,2536
31330,1355
31340,2511
31350,1424
31360,2527
31370,1600
31380,2542
31390,1668
31400,2595
31410,1709
31420,2496
31430,1702
31440,2304
31450,1490
31460,2042
31470,1328
31480,1857
31490,1300
31500,1808
31510,1360
31520,1767
31530,1413
31540,1775
31550,1494
31560,1703
31570,1521
31580,1604
31590,1530
31600,1556
31610,1535
31620,1507
31630,1559
31640,1466
31650,1391
31660,1557
31670,1771
31680,1568
31690,1853
31700,1558
31710,1922
31720,1431
31730,1856
31740,1405
31750,2009
31760,1418
31770,2030
31780,1413
31790,2142
31800,1436
31810,2223
31820,1360
31830,2287
31840,1392
31850,2384
31860,1391
31870,2487
31880,2197
31890,4095
31900,1327
31910,2160
31920,1247
31930,2513
31940,1147
31950,2486
31960,1087
31970,2539
31980,1088
31990,2613
32000,1116
32010,1168
32020,1216
32030,1267
32040,1318
32050,4048
32060,2281
32070,4095
32080,2305
32090,4095
32100,2189
32110,4095
32120,1886
32130,3542
32140,1463
32150,3347
32160,1040
32170,3217
32180,818
32190,3078
32200,652
32210,3009
32220,566
32230,2960
32240,446
32250,2942
32260,402
32270,2934
32280,326
32290,2922
32300,262
32310,2896
32320,205
32330,2895
32340,140
32350,2928
32360,176
32370,3141
32380,139
32390,3086
32400,58
32410,2945
32420,0
32430,2884
32440,0
32450,0
32460,0
32470,0
32480,0
32490,3130
32500,0
32510,3205
32520,0
32530,3233
32540,0
32550,3328
32560,0
32570,4095
32580,1713
32590,3504
32600,0
32610,3325
32620,0
32630,3450
32640,0
32650,3463
32660,0
32670,3632
32680,0
32690,3790
32700,0
32710,3882
32720,0
32730,4095
32740,0
32750,4095
32760,49
32770,4095
32780,58
32790,4095
32800,0
32810,4095
32820,0
32830,3827
32840,0
32850,3511
32860,0
32870,3536
32880,0
32890,3630
32900,0
32910,3717
32920,0
32930,3827
32940,0
32950,3852
32960,0
32970,3920
32980,0
32990,3988
33000,2845
33010,2926
33020,2991
33030,3043
33040,3114
33050,4095
33060,847
33070,4095
33080,903
33090,4095
33100,653
33110,4095
33120,245
33130,4095
33140,43
33150,4095
33160,0
33170,4095
33180,0
33190,4095
33200,0
33210,4095
33220,0
33230,4095
33240,0
33250,4095
33260,0
33270,4095
33280,1118
33290,3627
33300,0
33310,4095
33320,0
33330,4095
33340,0
33350,4095
33360,0
33370,4095
33380,0
33390,4095
33400,0
33410,4095
33420,0
33430,4095
33440,0
33450,4095
33460,0
33470,4095
33480,0
33490,4095
33500,0
33510,4095
33520,0
33530,4095
33540,0
33550,3895
33560,0
33570,3871
33580,0
33590,3999
33600,0
33610,4095
33620,0
33630,4095
33640,0
33650,4095
33660,0
33670,4095
33680,0
33690,4095
33700,0
33710,4095
33720,0
33730,4095
33740,0
33750,4095
33760,0
33770,4095
33780,0
33790,4095
33800,0
33810,4095
33820,0
33830,4095
33840,0
33850,4095
33860,49
33870,4095
33880,101
33890,4095
33900,122
33910,4095
33920,122
33930,4095
33940,146
33950,4095
33960,182
33970,4095
33980,1755
33990,4095
34000,4095
34010,4095
34020,4095
34030,4095
34040,4095
34050,4095
34060,1501
34070,4095
34080,1614
34090,4095
34100,1534
34110,4095
34120,1371
34130,4095
34140,1168
34150,4095
34160,1188
34170,4095
34180,1168
34190,4095
34200,1002
34210,3995
34220,742
34230,3762
34240,545
34250,3553
34260,448
34270,3419
34280,431
34290,3360
34300,459
34310,3297
34320,477
34330,3243
34340,505
34350,3184
34360,528
34370,3136
34380,571
34390,3069
34400,566
34410,2992
34420,562
34430,2938
34440,577
34450,2860
34460,598
34470,2794
34480,642
34490,2783
34500,689
34510,2885
34520,841
34530,2870
34540,850
34550,2726
34560,753
34570,2609
34580,816
34590,2583
34600,867
34610,2559
34620,928
34630,2550
34640,986
34650,2526
34660,1041
34670,2513
34680,1089
34690,2480
34700,1158
34710,2689
34720,2382
34730,3583
34740,1094
34750,2205
34760,1361
34770,2357
34780,1332
34790,2337
34800,1424
34810,2343
34820,1488
34830,2320
34840,1565
34850,2335
34860,1659
34870,2320
34880,1755
34890,2342
34900,1913
34910,2411
34920,1989
34930,2437
34940,2061
34950,2364
34960,1993
34970,2118
34980,1840
34990,1891
35000,4095
35010,4095
35020,4095
35030,4095
35040,4095
35050,2640
35060,2944
35070,2710
35080,3042
35090,2662
35100,2981
35110,2459
35120,2863
35130,2257
35140,2735
35150,2075
35160,2608
35170,1904
35180,2531
35190,1721
35200,2448
35210,1582
35220,2400
35230,1455
35240,2349
35250,1338
35260,2399
35270,1377
35280,2435
35290,1251
35300,2346
35310,1075
35320,2221
35330,963
35340,2270
35350,923
35360,2343
35370,851
35380,2268
35390,807
35400,2368
35410,749
35420,2381
35430,711
35440,2423
35450,671
35460,2507
35470,1129
35480,4095
35490,1353
35500,2255
35510,618
35520,2761
35530,595
35540,2689
35550,558
35560,2745
35570,558
35580,2832
35590,560
35600,2961
35610,617
35620,3088
35630,655
35640,3218
35650,688
35660,3406
35670,772
35680,3551
35690,784
35700,3611
35710,665
35720,3392
35730,401
35740,3163
35750,143
35760,2983
35770,68
35780,3019
35790,54
35800,3119
35810,43
35820,3192
35830,23
35840,3247
35850,69
35860,3346
35870,59
35880,3405
35890,32
35900,3488
35910,0
35920,3502
35930,0
35940,3539
35950,0
35960,3536
35970,0
35980,3679
35990,0
36000,3355
36010,3299
36020,3243
36030,3189
36040,3136
36050,1053
36060,4095
36070,1070
36080,4095
36090,951
36100,4095
36110,787
36120,4095
36130,586
36140,4095
36150,468
36160,4095
36170,198
36180,4095
36190,88
36200,4095
36210,0
36220,4095
36230,1023
36240,4095
36250,0
36260,3583
36270,0
36280,3983
36290,0
36300,3879
36310,0
36320,3942
36330,0
36340,4095
36350,0
36360,4095
36370,0
36380,4095
36390,0
36400,4095
36410,0
36420,4095
36430,0
36440,298
36450,349
36460,390
36470,432
36480,4095
36490,0
36500,4045
36510,0
36520,3887
36530,0
36540,3952
36550,0
36560,4007
36570,0
36580,4095
36590,0
36600,4095
36610,0
36620,4095
36630,0
36640,4095
36650,0
36660,4095
36670,0
36680,4095
36690,0
36700,4095
36710,0
36720,4095
36730,0
36740,4095
36750,0
36760,4095
36770,0
36780,4095
36790,0
36800,4095
36810,0
36820,4095
36830,0
36840,4095
36850,0
36860,4095
36870,0
36880,4095
36890,0
36900,4095
36910,0
36920,4095
36930,0
36940,4095
36950,19
36960,4095
36970,539
36980,3517
36990,0
37000,1239
37010,1175
37020,1123
37030,1086
37040,1055
37050,582
37060,4095
37070,932
37080,4095
37090,929
37100,4095
37110,831
37120,4095
37130,805
37140,4095
37150,774
37160,4095
37170,647
37180,4095
37190,434
37200,4095
37210,17
37220,4095
37230,10
37240,3987
37250,0
37260,3801
37270,0
37280,3757
37290,0
37300,3712
37310,2
37320,3619
37330,6
37340,3616
37350,26
37360,3568
37370,67
37380,3529
37390,55
37400,3458
37410,90
37420,3521
37430,131
37440,3619
37450,193
37460,3725
37470,321
37480,3690
37490,305
37500,3616
37510,265
37520,3468
37530,342
37540,3440
37550,436
37560,3369
37570,464
37580,3278
37590,479
37600,3218
37610,412
37620,3233
37630,298
37640,3189
37650,240
37660,3354
37670,1085
37680,4095
37690,442
37700,2832
37710,642
37720,3173
37730,655
37740,3194
37750,787
37760,3217
37770,868
37780,3221
37790,1019
37800,3246
37810,1037
37820,3299
37830,1199
37840,3332
37850,1343
37860,3398
37870,1489
37880,3387
37890,1558
37900,3309
37910,1458
37920,3127
37930,1303
37940,2973
37950,1265
37960,2887
37970,1260
37980,2832
37990,1359
38000,642
38010,631
38020,662
38030,670
38040,681
38050,2411
38060,3641
38070,2640
38080,3568
38090,2679
38100,3441
38110,2551
38120,3201
38130,2207
38140,3071
38150,2215
38160,2763
38170,2064
38180,2736
38190,1977
38200,2519
38210,1904
38220,2239
38230,1675
38240,2015
38250,1584
38260,1888
38270,1584
38280,1835
38290,1582
38300,1715
38310,1534
38320,1667
38330,1585
38340,1597
38350,1413
38360,1640
38370,1712
38380,2192
38390,3269
38400,1445
38410,1365
38420,1450
38430,1887
38440,1379
38450,1839
38460,1414
38470,1932
38480,1390
38490,2001
38500,1378
38510,2090
38520,1378
38530,2190
38540,1391
38550,2237
38560,1424
38570,2416
38580,1423
38590,2514
38600,1424
38610,2530
38620,1209
38630,2334
38640,975
38650,2143
38660,810
38670,2156
38680,781
38690,2214
38700,752
38710,2288
38720,756
38730,2302
38740,737
38750,2359
38760,675
38770,2419
38780,667
38790,2498
38800,614
38810,2493
38820,639
38830,2577
38840,589
38850,2619
38860,576
38870,2799
38880,653
38890,2827
38900,560
38910,2791
38920,387
38930,2672
38940,336
38950,2737
38960,287
38970,2781
38980,267
38990,2843
39000,1136
39010,1205
39020,1264
39030,1326
39040,1381
39050,4095
39060,1280
39070,4095
39080,2486
39090,4095
39100,938
39110,3887
39120,880
39130,4037
39140,592
39150,3840
39160,400
39170,3532
39180,208
39190,3335
39200,157
39210,3397
39220,3
39230,3381
39240,11
39250,3531
39260,32
39270,3666
39280,106
39290,3783
39300,21
39310,3691
39320,0
39330,3281
39340,0
39350,3017
39360,0
39370,2944
39380,0
39390,2835
39400,0
39410,2942
39420,0
39430,2936
39440,0
39450,3031
39460,0
39470,3041
39480,0
39490,3071
39500,0
39510,3115
39520,0
39530,3179
39540,0
39550,3280
39560,0
39570,3598
39580,0
39590,3463
39600,0
39610,3234
39620,0
39630,3205
39640,0
39650,3344
39660,0
39670,3342
39680,0
39690,3431
39700,0
39710,3583
39720,0
39730,3760
39740,0
39750,3849
39760,0
39770,4095
39780,917
39790,3361
39800,0
39810,4091
39820,0
39830,4095
39840,0
39850,4095
39860,0
39870,4095
39880,0
39890,4095
39900,0
39910,4095
39920,0
39930,4095
39940,94
39950,4095
39960,272
39970,4095
39980,395
39990,4095
40000,3879
40010,4019
40020,4095
40030,4095
40040,4095
40050,4095
40060,1134
40070,4095
40080,1202
40090,4095
40100,1165
40110,4095
40120,979
40130,4095
40140,816
40150,4095
40160,614
40170,4095
40180,470
40190,4095
40200,383
40210,4095
40220,316
40230,4095
40240,320
40250,4095
40260,361
40270,4095
40280,304
40290,4095
40300,27
40310,4095
40320,0
40330,4095
40340,0
40350,4095
40360,0
40370,4095
40380,0
40390,4095
40400,0
40410,4095
40420,0
40430,4095
40440,4095
40450,4095
40460,4095
40470,4095
40480,1381
40490,3583
40500,0
40510,4095
40520,3
40530,4095
40540,19
40550,4095
40560,64
40570,4095
40580,115
40590,4095
40600,129
40610,4095
40620,149
40630,4095
40640,194
40650,4095
40660,311
40670,4095
40680,347
40690,4095
40700,243
40710,4095
40720,178
40730,3970
40740,110
40750,3830
40760,87
40770,3712
40780,87
40790,3658
40800,117
40810,3663
40820,157
40830,3671
40840,171
40850,3634
40860,286
40870,3538
40880,337
40890,3447
40900,337
40910,3417
40920,272
40930,3423
40940,208
40950,3381
40960,213
40970,3643
40980,417
40990,3482
41000,4095
41010,4095
41020,4095
41030,4095
41040,4095
41050,4059
41060,1441
41070,4095
41080,1616
41090,4085
41100,1608
41110,3961
41120,1499
41130,3792
41140,1347
41150,3662
41160,1233
41170,4007
41180,2767
41190,3726
41200,750
41210,3216
41220,946
41230,3118
41240,880
41250,3043
41260,871
41270,2949
41280,890
41290,2914
41300,916
41310,2884
41320,974
41330,2863
41340,1068
41350,2886
41360,1185
41370,2923
41380,1226
41390,2896
41400,1229
41410,2742
41420,1079
41430,2512
41440,921
41450,2299
41460,934
41470,2245
41480,976
41490,2223
41500,1038
41510,2196
41520,1078
41530,2199
41540,1136
41550,2147
41560,1168
41570,2151
41580,1242
41590,2132
41600,1289
41610,2091
41620,1296
41630,2064
41640,1344
41650,2045
41660,1434
41670,2129
41680,1535
41690,2099
41700,1584
41710,1910
41720,1455
41730,1799
41740,1535
41750,1776
41760,1578
41770,1761
41780,1630
41790,1743
41800,1719
41810,1745
41820,1758
41830,1744
41840,1859
41850,1719
41860,1936
41870,2096
41880,3692
41890,2517
41900,1702
41910,1604
41920,2188
41930,1666
41940,2187
41950,1670
41960,2246
41970,1648
41980,2327
41990,1645
42000,4095
42010,4095
42020,4095
42030,4095
42040,4095
42050,2611
42060,3818
42070,2803
42080,4051
42090,2720
42100,3948
42110,2441
42120,3525
42130,1993
42140,3161
42150,1623
42160,2891
42170,1374
42180,2782
42190,1211
42200,2687
42210,1091
42220,2640
42230,938
42240,2624
42250,886
42260,2611
42270,838
42280,2614
42290,797
42300,2629
42310,746
42320,2641
42330,688
42340,2623
42350,630
42360,2702
42370,723
42380,2873
42390,683
42400,2842
42410,464
42420,2613
42430,368
42440,2655
42450,353
42460,2702
42470,304
42480,2735
42490,275
42500,2771
42510,241
42520,2837
42530,245
42540,2873
42550,239
42560,2960
42570,543
42580,4095
42590,1663
42600,2742
42610,72
42620,3280
42630,208
42640,3241
42650,242
42660,3376
42670,263
42680,3450
42690,288
42700,3545
42710,311
42720,3691
42730,371
42740,3903
42750,418
42760,4048
42770,470
42780,4095
42790,459
42800,4095
42810,359
42820,3920
42830,66
42840,3520
42850,0
42860,3317
42870,0
42880,3264
42890,0
42900,3342
42910,0
42920,3394
42930,0
42940,3440
42950,0
42960,3457
42970,0
42980,3473
42990,0
43000,2869
43010,2805
43020,2752
43030,2694
43040,2638
43050,535
43060,4095
43070,826
43080,4095
43090,863
43100,4095
43110,657
43120,4095
43130,229
43140,4095
43150,79
43160,4095
43170,0
43180,4095
43190,0
43200,4095
43210,0
43220,4095
43230,0
43240,4095
43250,0
43260,4095
43270,0
43280,4095
43290,1284
43300,4095
43310,0
43320,3822
43330,0
43340,4095
43350,0
43360,4095
43370,0
43380,4095
43390,0
43400,4095
43410,0
43420,4095
43430,0
43440,4095
43450,0
43460,4095
43470,0
43480,4095
43490,0
43500,4095
43510,0
43520,4095
43530,0
43540,4095
43550,0
43560,4064
43570,0
43580,3967
43590,0
43600,4048
43610,0
43620,4095
43630,0
43640,4095
43650,0
43660,4095
43670,0
43680,4095
43690,0
43700,4095
43710,0
43720,4095
43730,0
43740,4095
43750,0
43760,4095
43770,0
43780,4095
43790,0
43800,4095
43810,0
43820,4095
43830,0
43840,4095
43850,0
43860,4095
43870,0
43880,4095
43890,0
43900,4095
43910,0
43920,4095
43930,0
43940,4095
43950,0
43960,4095
43970,0
43980,4095
43990,0
44000,886
44010,845
44020,801
44030,763
44040,723
44050,560
44060,4095
44070,1212
44080,4095
44090,1099
44100,4095
44110,976
44120,4095
44130,801
44140,4095
44150,668
44160,4095
44170,601
44180,4095
44190,511
44200,4095
44210,510
44220,4095
44230,421
44240,4095
44250,278
44260,4095
44270,73
44280,3987
44290,0
44300,3670
44310,0
44320,3535
44330,0
44340,3481
44350,0
44360,3468
44370,21
44380,3489
44390,2026
44400,1947
44410,1879
44420,1815
44430,78
44440,3414
44450,94
44460,3405
44470,109
44480,3414
44490,180
44500,3375
44510,181
44520,3405
44530,212
44540,3397
44550,289
44560,3520
44570,331
44580,3497
44590,333
44600,3279
44610,327
44620,3247
44630,384
44640,3252
44650,412
44660,3287
44670,438
44680,3265
44690,470
44700,3229
44710,532
44720,3263
44730,576
44740,3217
44750,692
44760,4063
44770,2089
44780,2733
44790,414
44800,3047
44810,715
44820,3033
44830,751
44840,3063
44850,832
44860,3069
44870,902
44880,3084
44890,997
44900,3124
44910,1110
44920,3200
44930,1280
44940,3267
44950,1427
44960,3258
44970,1520
44980,3247
44990,1535
45000,368
45010,368
45020,368
45030,370
45040,371
45050,2005
45060,3482
45070,2227
45080,3440
45090,2243
45100,3327
45110,2112
45120,3154
45130,1999
45140,2992
45150,1879
45160,2846
45170,1755
45180,2675
45190,1652
45200,2559
45210,1557
45220,2417
45230,1535
45240,2338
45250,1456
45260,2260
45270,1535
45280,2366
45290,1602
45300,2224
45310,1553
45320,1983
45330,1437
45340,1894
45350,1499
45360,1855
45370,1514
45380,1818
45390,1609
45400,1789
45410,1659
45420,1750
45430,1664
45440,1733
45450,1707
45460,1721
45470,1833
45480,2386
45490,3436
45500,1613
45510,1456
45520,1552
45530,1977
45540,1552
45550,1950
45560,1583
45570,2079
45580,1612
45590,2224
45600,1653
45610,2329
45620,1631
45630,2387
45640,1648
45650,2482
45660,1679
45670,2609
45680,1703
45690,2707
45700,1674
45710,2667
45720,1489
45730,2526
45740,1223
45750,2302
45760,1071
45770,2276
45780,1010
45790,2336
45800,964
45810,2351
45820,943
45830,2441
45840,921
45850,2487
45860,896
45870,2559
45880,896
45890,2597
45900,862
45910,2621
45920,817
45930,2638
45940,781
45950,2702
45960,759
45970,2718
45980,751
45990,2895
46000,930
46010,991
46020,1067
46030,1040
46040,1158
46050,3841
46060,1535
46070,4095
46080,1535
46090,4095
46100,1431
46110,4074
46120,1229
46130,3702
46140,1071
46150,3707
46160,868
46170,3583
46180,704
46190,3676
46200,1707
46210,4095
46220,435
46230,3007
46240,380
46250,3282
46260,221
46270,3202
46280,159
46290,3197
46300,123
46310,3185
46320,86
46330,3276
46340,64
46350,3344
46360,139
46370,3529
46380,176
46390,3713
46400,246
46410,3882
46420,288
46430,3987
46440,95
46450,3583
46460,0
46470,3293
46480,0
46490,3232
46500,0
46510,3328
46520,0
46530,3467
46540,0
46550,3480
46560,0
46570,3583
46580,0
46590,3637
46600,0
46610,3654
46620,0
46630,3677
46640,0
46650,3663
46660,0
46670,3746
46680,0
46690,3792
46700,0
46710,4095
46720,0
46730,4095
46740,0
46750,3823
46760,0
46770,3807
46780,0
46790,3934
46800,0
46810,3966
46820,0
46830,4029
46840,0
46850,4095
46860,0
46870,4095
46880,0
46890,4095
46900,0
46910,4095
46920,1570
46930,4095
46940,0
46950,4095
46960,0
46970,4095
46980,0
46990,4095
47000,3285
47010,3363
47020,3427
47030,3550
47040,3583
47050,4095
47060,1121
47070,4095
47080,1296
47090,4095
47100,1254
47110,4095
47120,1104
47130,4095
47140,899
47150,4095
47160,400
47170,4095
47180,2
47190,4095
47200,0
47210,4095
47220,0
47230,4095
47240,0
47250,4095
47260,0
47270,4095
47280,0
47290,4095
47300,0
47310,4095
47320,0
47330,4095
47340,0
47350,4095
47360,0
47370,4095
47380,0
47390,4095
47400,0
47410,4095
47420,0
47430,4095
47440,0
47450,3984
47460,0
47470,3971
47480,0
47490,3989
47500,0
47510,4095
47520,0
47530,3987
47540,0
47550,4022
47560,0
47570,3872
47580,0
47590,4007
47600,64
47610,4095
47620,53
47630,3329
47640,0
47650,4022
47660,0
47670,4025
47680,0
47690,4067
47700,0
47710,4095
47720,0
47730,4095
47740,0
47750,4095
47760,0
47770,4095
47780,79
47790,4095
47800,172
47810,4095
47820,240
47830,4095
47840,134
47850,4095
47860,48
47870,4091
47880,0
47890,3948
47900,18
47910,3917
47920,37
47930,3943
47940,85
47950,3964
47960,112
47970,3996
47980,161
47990,3953
48000,4095
48010,4095
48020,4095
48030,4095
48040,4095
48050,4095
48060,1374
48070,4095
48080,1618
48090,4095
48100,1466
48110,4095
48120,1171
48130,4095
48140,880
48150,4035
48160,762
48170,3929
48180,655
48190,3825
48200,619
48210,3792
48220,607
48230,3725
48240,574
48250,3606
48260,539
48270,3484
48280,881
48290,4095
48300,1363
48310,2691
48320,567
48330,3293
48340,571
48350,2838
48360,2847
48370,2918
48380,2988
48390,3136
48400,690
48410,3177
48420,734
48430,3155
48440,795
48450,3209
48460,881
48470,3221
48480,929
48490,3215
48500,1009
48510,3120
48520,951
48530,2927
48540,817
48550,2713
48560,731
48570,2535
48580,752
48590,2503
48600,782
48610,2496
48620,829
48630,2519
48640,903
48650,2497
48660,991
48670,2477
48680,1072
48690,2484
48700,1099
48710,2455
48720,1109
48730,2429
48740,1187
48750,2469
48760,1404
48770,2425
48780,1443
48790,2323
48800,1294
48810,2115
48820,1305
48830,2094
48840,1325
48850,2070
48860,1424
48870,2071
48880,1458
48890,2091
48900,1484
48910,2135
48920,1535
48930,2159
48940,1386
48950,2422
48960,2844
48970,3347
48980,1535
48990,1833
49000,4095
49010,4095
49020,4095
49030,4095
49040,4095
49050,2927
49060,2992
49070,3018
49080,3149
49090,2983
49100,3135
49110,2909
49120,3070
49130,2738
49140,2985
49150,2582
49160,2899
49170,2387
49180,2759
49190,2137
49200,2505
49210,1775
49220,2199
49230,1487
49240,1988
49250,1276
49260,1924
49270,1205
49280,1938
49290,1152
49300,1971
49310,1103
49320,2024
49330,1087
49340,2112
49350,1062
49360,2087
49370,1040
49380,2176
49390,1038
49400,2189
49410,977
49420,2222
49430,1040
49440,2405
49450,951
49460,2354
49470,775
49480,2225
49490,702
49500,2270
49510,674
49520,2315
49530,635
49540,2381
49550,677
49560,2483
49570,646
49580,2512
49590,622
49600,2533
49610,568
49620,2526
49630,830
49640,4095
49650,1792
49660,2350
49670,418
49680,2832
49690,508
49700,2815
49710,528
49720,2878
49730,573
49740,3071
49750,619
49760,3259
49770,717
49780,3424
49790,781
49800,3606
49810,883
49820,3792
49830,976
49840,3953
49850,926
49860,3941
49870,816
49880,3709
49890,554
49900,3420
49910,260
49920,3224
49930,191
49940,3275
49950,208
49960,3325
49970,196
49980,3447
49990,211
50000,3597
50010,3527
50020,3472
50030,3417
50040,3365
50050,1212
50060,4095
50070,1407
50080,4095
50090,1301
50100,4095
50110,1264
50120,4095
50130,983
50140,4095
50150,545
50160,4095
50170,340
50180,4095
50190,192
50200,4095
50210,68
50220,4085
50230,0
50240,3918
50250,0
50260,3937
50270,0
50280,3910
50290,0
50300,4079
50310,706
50320,4095
50330,0
50340,3367
50350,0
50360,3866
50370,0
50380,3757
50390,0
50400,3863
50410,0
50420,3902
50430,0
50440,4014
50450,0
50460,4095
50470,0
50480,4095
50490,0
50500,4095
50510,0
50520,4095
50530,0
50540,4095
50550,0
50560,4095
50570,0
50580,4091
50590,0
50600,4016
50610,0
50620,4019
50630,0
50640,4075
50650,0
50660,4095
50670,0
50680,4095
50690,0
50700,4095
50710,0
50720,4095
50730,0
50740,4095
50750,0
50760,4095
50770,0
50780,4095
50790,0
50800,4095
50810,0
50820,4095
50830,0
50840,4095
50850,0
50860,4095
50870,0
50880,4095
50890,0
50900,4095
50910,0
50920,4095
50930,0
50940,4095
50950,11
50960,4095
50970,208
50980,4095
50990,2083
51000,2323
51010,2269
51020,2224
51030,2176
51040,2133
51050,1232
51060,4095
51070,1617
51080,4095
51090,1601
51100,4095
51110,1486
51120,4095
51130,1309
51140,4095
51150,1203
51160,4095
51170,1136
51180,4095
51190,1040
51200,4095
51210,803
51220,4095
51230,442
51240,4095
51250,76
51260,4095
51270,0
51280,4095
51290,0
51300,4095
51310,0
51320,4095
51330,0
51340,4095
51350,0
51360,4095
51370,0
51380,4095
51390,0
51400,4095
51410,0
51420,4095
51430,0
51440,4095
51450,0
51460,4095
51470,0
51480,3995
51490,0
51500,3843
51510,0
51520,3792
51530,0
51540,3821
51550,0
51560,3815
51570,0
51580,3805
51590,6
51600,3831
51610,55
51620,3837
51630,92
51640,4074
51650,1130
51660,4095
51670,10
51680,3419
51690,222
51700,3708
51710,171
51720,3664
51730,179
51740,3661
51750,213
51760,3655
51770,272
51780,3749
51790,336
51800,3777
51810,415
51820,3829
51830,507
51840,3846
51850,595
51860,3833
51870,642
51880,3697
51890,524
51900,3472
51910,391
51920,3262
51930,349
51940,3170
51950,370
51960,3135
51970,419
51980,3171
51990,474
52000,252
52010,240
52020,224
52030,211
52040,206
52050,1310
52060,3840
52070,1558
52080,3847
52090,1583
52100,3729
52110,1563
52120,3718
52130,1488
52140,3472
52150,1305
52160,3248
52170,1046
52180,3058
52190,978
52200,2965
52210,1005
52220,2828
52230,933
52240,2721
52250,943
52260,2656
52270,860
52280,2593
52290,1154
52300,1216
52310,1269
52320,1326
52330,2434
52340,2819
52350,658
52360,2346
52370,1062
52380,2343
52390,1066
52400,2313
52410,1143
52420,2311
52430,1209
52440,2331
52450,1265
52460,2363
52470,1340
52480,2407
52490,1453
52500,2475
52510,1586
52520,2468
52530,1700
52540,2448
52550,1698
52560,2283
52570,1555
52580,2042
52590,1392
52600,1840
52610,1341
52620,1812
52630,1386
52640,1738
52650,1455
52660,1742
52670,1524
52680,1744
52690,1554
52700,1733
52710,1627
52720,1705
52730,1648
52740,1681
52750,1725
52760,1675
52770,1856
52780,1769
52790,1904
52800,1769
52810,1936
52820,1566
52830,1866
52840,1470
52850,1899
52860,1428
52870,1936
52880,1410
52890,2010
52900,1417
52910,2097
52920,1407
52930,2158
52940,1420
52950,2245
52960,1408
52970,2479
52980,2556
52990,3750
53000,774
53010,812
53020,859
53030,903
53040,913
53050,3423
53060,2283
53070,3667
53080,2285
53090,3760
53100,2202
53110,3651
53120,2046
53130,3622
53140,1952
53150,3525
53160,1839
53170,3481
53180,1787
53190,3449
53200,1568
53210,3250
53220,1261
53230,3027
53240,932
53250,2752
53260,688
53270,2583
53280,581
53290,2624
53300,533
53310,2657
53320,499
53330,2717
53340,451
53350,2706
53360,419
53370,2728
53380,365
53390,2761
53400,354
53410,2950
53420,330
53430,2895
53440,277
53450,2783
53460,112
53470,2669
53480,80
53490,2741
53500,58
53510,2816
53520,53
53530,2890
53540,63
53550,2977
53560,49
53570,3017
53580,54
53590,3087
53600,73
53610,3903
53620,1868
53630,3463
53640,0
53650,3046
53660,0
53670,3233
53680,0
53690,3312
53700,3
53710,3383
53720,4
53730,3491
53740,51
53750,3681
53760,117
53770,3887
53780,195
53790,4095
53800,307
53810,4095
53820,327
53830,4095
53840,256
53850,4095
53860,0
53870,3757
53880,0
53890,3524
53900,0
53910,3491
53920,0
53930,3539
53940,0
53950,3677
53960,0
53970,3783
53980,0
53990,3757
54000,2543
54010,2621
54020,2675
54030,2736
54040,2800
54050,4095
54060,986
54070,4095
54080,974
54090,4095
54100,623
54110,4095
54120,434
54130,4095
54140,240
54150,4095
54160,81
54170,4095
54180,0
54190,4095
54200,0
54210,4095
54220,0
54230,4095
54240,0
54250,4095
54260,1450
54270,4095
54280,0
54290,3972
54300,0
54310,4095
54320,0
54330,4095
54340,0
54350,4095
54360,0
54370,4095
54380,0
54390,4095
54400,0
54410,4095
54420,0
54430,4095
54440,0
54450,4095
54460,0
54470,4095
54480,0
54490,4095
54500,0
54510,4095
54520,0
54530,4095
54540,0
54550,4079
54560,0
54570,4095
54580,0
54590,4095
54600,0
54610,4095
54620,0
54630,4095
54640,0
54650,4095
54660,0
54670,4095
54680,0
54690,4095
54700,0
54710,4095
54720,0
54730,4095
54740,0
54750,4095
54760,0
54770,4095
54780,0
54790,4095
54800,0
54810,4095
54820,0
54830,4095
54840,0
54850,4095
54860,0
54870,4095
54880,0
54890,4095
54900,124
54910,4095
54920,637
54930,3502
54940,0
54950,4095
54960,0
54970,4095
54980,0
54990,4095
55000,4095
55010,4095
55020,4095
55030,4095
55040,4095
55050,4095
55060,1139
55070,4095
55080,1356
55090,4095
55100,1321
55110,4095
55120,1161
55130,4095
55140,812
55150,4095
55160,410
55170,4095
55180,137
55190,4095
55200,68
55210,4095
55220,38
55230,3990
55240,24
55250,3918
55260,51
55270,3858
55280,57
55290,3760
55300,81
55310,3644
55320,43
55330,3536
55340,75
55350,3536
55360,144
55370,3518
55380,177
55390,3427
55400,128
55410,3223
55420,147
55430,3217
55440,147
55450,3214
55460,144
55470,3203
55480,187
55490,3190
55500,183
55510,3218
55520,226
55530,3220
55540,273
55550,3205
55560,592
55570,4095
55580,1329
55590,2559
55600,459
55610,3147
55620,496
55630,3102
55640,464
55650,3187
55660,523
55670,3201
55680,425
55690,3373
55700,672
55710,3243
55720,717
55730,3311
55740,880
55750,3367
55760,978
55770,3396
55780,1057
55790,3349
55800,994
55810,3195
55820,884
55830,3005
55840,781
55850,2880
55860,784
55870,2822
55880,855
55890,2832
55900,927
55910,2829
55920,970
55930,2818
55940,1040
55950,2800
55960,1099
55970,2779
55980,1139
55990,2748
56000,4095
56010,4095
56020,4095
56030,4095
56040,4095
56050,3481
56060,2321
56070,3370
56080,2253
56090,3264
56100,2224
56110,3207
56120,2128
56130,3015
56140,2034
56150,2868
56160,1903
56170,2779
56180,1813
56190,2649
56200,1759
56210,2522
56220,1727
56230,2827
56240,1311
56250,1388
56260,1449
56270,1495
56280,1710
56290,2118
56300,1603
56310,2062
56320,1664
56330,2023
56340,1696
56350,2042
56360,1754
56370,1994
56380,1829
56390,2039
56400,1955
56410,2069
56420,2066
56430,2084
56440,2184
56450,2064
56460,2190
56470,1898
56480,2009
56490,1660
56500,1794
56510,1498
56520,1797
56530,1451
56540,1882
56550,1440
56560,1945
56570,1411
56580,2022
56590,1425
56600,2094
56610,1404
56620,2142
56630,1373
56640,2176
56650,1362
56660,2256
56670,1328
56680,2237
56690,1281
56700,2348
56710,1392
56720,2446
56730,1341
56740,2461
56750,1178
56760,2336
56770,1101
56780,2391
56790,1076
56800,2416
56810,1036
56820,2479
56830,1037
56840,2540
56850,1072
56860,2608
56870,1036
56880,2650
56890,987
56900,2710
56910,1187
56920,4095
56930,2512
56940,2459
56950,656
56960,2934
56970,896
56980,2864
56990,880
57000,4095
57010,4095
57020,4095
57030,4079
57040,4043
57050,1776
57060,4095
57070,2087
57080,4095
57090,2016
57100,4095
57110,1903
57120,4095
57130,1713
57140,4095
57150,1409
57160,3879
57170,1066
57180,3504
57190,643
57200,3203
57210,405
57220,3059
57230,307
57240,3041
57250,227
57260,3041
57270,185
57280,2960
57290,99
57300,2933
57310,25
57320,2902
57330,0
57340,2935
57350,0
57360,2886
57370,0
57380,2981
57390,1
57400,3184
57410,0
57420,3136
57430,0
57440,2896
57450,0
57460,2923
57470,0
57480,2991
57490,0
57500,3013
57510,0
57520,3093
57530,0
57540,3154
57550,0
57560,3248
57570,0
57580,3299
57590,0
57600,4095
57610,1404
57620,3394
57630,0
57640,3178
57650,0
57660,3280
57670,0
57680,3292
57690,0
57700,3510
57710,0
57720,3696
57730,0
57740,3983
57750,0
57760,4095
57770,0
57780,4095
57790,96
57800,4095
57810,112
57820,4095
57830,61
57840,4095
57850,0
57860,4095
57870,0
57880,3906
57890,0
57900,3778
57910,0
57920,3792
57930,0
57940,3854
57950,0
57960,4011
57970,0
57980,4095
57990,0
58000,2473
58010,2407
58020,2349
58030,2294
58040,2239
58050,491
58060,4095
58070,837
58080,4095
58090,781
58100,4095
58110,561
58120,4095
58130,177
58140,4095
58150,26
58160,4095
58170,0
58180,4095
58190,0
58200,4095
58210,0
58220,4095
58230,0
58240,4095
58250,0
58260,4095
58270,0
58280,4095
58290,1248
58300,3711
58310,0
58320,4095
58330,0
58340,4095
58350,0
58360,4095
58370,0
58380,4095
58390,0
58400,4095
58410,0
58420,4095
58430,0
58440,4095
58450,0
58460,4095
58470,0
58480,4095
58490,0
58500,4095
58510,0
58520,4095
58530,0
58540,4095
58550,0
58560,3935
58570,0
58580,3921
58590,0
58600,4010
58610,0
58620,4048
58630,0
58640,4095
58650,0
58660,4095
58670,0
58680,4095
58690,0
58700,4095
58710,0
58720,4095
58730,0
58740,4095
58750,0
58760,4095
58770,0
58780,4095
58790,0
58800,4095
58810,0
58820,4095
58830,0
58840,4095
58850,0
58860,4095
58870,0
58880,4095
58890,0
58900,4095
58910,0
58920,4095
58930,0
58940,4095
58950,0
58960,4095
58970,1135
58980,4095
58990,0
59000,1157
59010,1114
59020,1072
59030,1046
59040,979
59050,895
59060,4095
59070,1158
59080,4095
59090,1209
59100,4095
59110,1165
59120,4095
59130,1089
59140,4095
59150,944
59160,4095
59170,863
59180,4095
59190,785
59200,4095
59210,497
59220,4095
59230,246
59240,3918
59250,145
59260,3761
59270,141
59280,3675
59290,141
59300,3596
59310,149
59320,3565
59330,192
59340,3495
59350,195
59360,3469
59370,124
59380,3376
59390,213
59400,3385
59410,226
59420,3392
59430,247
59440,3332
59450,346
59460,3470
59470,342
59480,3451
59490,339
59500,3194
59510,295
59520,3099
59530,345
59540,3090
59550,358
59560,3120
59570,413
59580,3136
59590,400
59600,3129
59610,478
59620,3135
59630,534
59640,3127
59650,801
59660,4095
59670,1486
59680,2507
59690,577
59700,3120
59710,685
59720,3094
59730,752
59740,3103
59750,769
59760,3102
59770,848
59780,3107
59790,931
59800,3159
59810,1005
59820,3164
59830,1088
59840,3169
59850,1143
59860,3188
59870,1215
59880,3135
59890,1151
59900,2939
59910,1018
59920,2735
59930,871
59940,2637
59950,889
59960,2522
59970,728
59980,2595
59990,969
