timestamp,value
0,862
10,927
20,912
30,926
40,949
50,1922
60,1072
70,2071
80,1093
90,2069
100,1107
110,2023
120,1071
130,2032
140,1017
150,2023
160,954
170,1985
180,854
190,1923
200,786
210,1937
220,765
230,1919
240,725
250,1965
260,737
270,2113
280,768
290,2054
300,697
310,1962
320,545
330,1906
340,575
350,1933
360,582
370,1981
380,582
390,1996
400,687
410,2005
420,696
430,2023
440,714
450,2096
460,1147
470,3696
480,698
490,1565
500,745
510,2132
520,576
530,2175
540,621
550,2236
560,655
570,2255
580,667
590,2273
600,740
610,2378
620,887
630,2528
640,947
650,2682
660,1061
670,2772
680,1040
690,2783
700,1018
710,2647
720,864
730,2589
740,653
750,2495
760,711
770,2487
780,745
790,2585
800,752
810,2655
820,761
830,2609
840,1170
850,2305
860,1337
870,2328
880,1438
890,2414
900,1322
910,2397
920,1383
930,2495
940,1337
950,2454
960,1373
970,2469
980,1285
990,2087
1000,2109
1010,2126
1020,2147
1030,2160
1040,2197
1050,3051
1060,1725
1070,3178
1080,1709
1090,3045
1100,1569
1110,2875
1120,1577
1130,2726
1140,1392
1150,2606
1160,1346
1170,2492
1180,1418
1190,3567
1200,2469
1210,1890
1220,873
1230,2474
1240,1129
1250,2335
1260,1087
1270,2331
1280,1114
1290,2352
1300,1094
1310,2417
1320,1183
1330,2413
1340,1127
1350,2559
1360,1191
1370,2559
1380,1263
1390,2624
1400,1314
1410,2606
1420,1227
1430,2477
1440,1069
1450,2310
1460,918
1470,2302
1480,841
1490,2282
1500,848
1510,2243
1520,899
1530,2267
1540,862
1550,2305
1560,874
1570,2367
1580,869
1590,2352
1600,970
1610,2425
1620,864
1630,2526
1640,894
1650,2460
1660,880
1670,2485
1680,983
1690,2559
1700,1074
1710,2663
1720,983
1730,2591
1740,891
1750,2484
1760,810
1770,2540
1780,919
1790,2534
1800,894
1810,2685
1820,950
1830,2659
1840,1013
1850,2687
1860,990
1870,2704
1880,1088
1890,3815
1900,2336
1910,2342
1920,720
1930,2864
1940,945
1950,2710
1960,951
1970,2769
1980,914
1990,2809
2000,2846
2010,2871
2020,2901
2030,2937
2040,2976
2050,4095
2060,1846
2070,4095
2080,1841
2090,4095
2100,1872
2110,4095
2120,1619
2130,3895
2140,1332
2150,3367
2160,1117
2170,3189
2180,950
2190,3018
2200,933
2210,3056
2220,797
2230,3009
2240,801
2250,2935
2260,730
2270,2973
2280,713
2290,2882
2300,777
2310,2797
2320,836
2330,2704
2340,745
2350,2721
2360,786
2370,2667
2380,726
2390,2815
2400,597
2410,2885
2420,763
2430,2797
2440,704
2450,2801
2460,545
2470,2706
2480,527
2490,2735
2500,495
2510,2726
2520,540
2530,2708
2540,532
2550,2751
2560,590
2570,2767
2580,688
2590,2784
2600,823
2610,4095
2620,1885
2630,2248
2640,605
2650,2846
2660,763
2670,2711
2680,843
2690,2707
2700,896
2710,2675
2720,1008
2730,2769
2740,976
2750,2809
2760,1088
2770,2853
2780,1202
2790,2960
2800,1337
2810,2996
2820,1375
2830,2943
2840,1262
2850,2825
2860,1087
2870,2661
2880,968
2890,2597
2900,923
2910,2544
2920,937
2930,2547
2940,961
2950,2485
2960,1017
2970,2511
2980,977
2990,3718
3000,3758
3010,3799
3020,3818
3030,3841
3040,3879
3050,3523
3060,1956
3070,3505
3080,1953
3090,3507
3100,1910
3110,3440
3120,1947
3130,3488
3140,1904
3150,3306
3160,1764
3170,2974
3180,1616
3190,2817
3200,1499
3210,2796
3220,1473
3230,2686
3240,1472
3250,2624
3260,1430
3270,2624
3280,1467
3290,2544
3300,1424
3310,2622
3320,2290
3330,4000
3340,1215
3350,2077
3360,1530
3370,2450
3380,1423
3390,2386
3400,1475
3410,2368
3420,1471
3430,2383
3440,1573
3450,2393
3460,1627
3470,2437
3480,1683
3490,2538
3500,1712
3510,2533
3520,1792
3530,2482
3540,1780
3550,2386
3560,1648
3570,2207
3580,1447
3590,2074
3600,1377
3610,1957
3620,1287
3630,1959
3640,1362
3650,1853
3660,1398
3670,1872
3680,1424
3690,1843
3700,1475
3710,1878
3720,1478
3730,1893
3740,1506
3750,1839
3760,1535
3770,1883
3780,1595
3790,1872
3800,1615
3810,1872
3820,1776
3830,2039
3840,1749
3850,1942
3860,1744
3870,1744
3880,1627
3890,1776
3900,1677
3910,1707
3920,1699
3930,1727
3940,1739
3950,1658
3960,1744
3970,1777
3980,1874
3990,3403
4000,3390
4010,3400
4020,3376
4030,3355
4040,3343
4050,2403
4060,3127
4070,2751
4080,3029
4090,2677
4100,2955
4110,2495
4120,2897
4130,2465
4140,2724
4150,2327
4160,2749
4170,2286
4180,2769
4190,2211
4200,2818
4210,2153
4220,2832
4230,2171
4240,2759
4250,2026
4260,2589
4270,1766
4280,2394
4290,1239
4300,1210
4310,1189
4320,1165
4330,1137
4340,2121
4350,1306
4360,2219
4370,1296
4380,2231
4390,1231
4400,2299
4410,1329
4420,2221
4430,1227
4440,2305
4450,1198
4460,2276
4470,1259
4480,2211
4490,1271
4500,2224
4510,1202
4520,2332
4530,1313
4540,2557
4550,1308
4560,2533
4570,1249
4580,2416
4590,1175
4600,2390
4610,1152
4620,2456
4630,1104
4640,2474
4650,1106
4660,2416
4670,1120
4680,2499
4690,1099
4700,2486
4710,1132
4720,2559
4730,1742
4740,4095
4750,1089
4760,2224
4770,1155
4780,2588
4790,1044
4800,2607
4810,1047
4820,2621
4830,1072
4840,2661
4850,1151
4860,2715
4870,1134
4880,2731
4890,1121
4900,2850
4910,1174
4920,2906
4930,1211
4940,2949
4950,1311
4960,2806
4970,1066
4980,2695
4990,2807
5000,2777
5010,2752
5020,2727
5030,2704
5040,2671
5050,1456
5060,3351
5070,1454
5080,3357
5090,1381
5100,3328
5110,1280
5120,3163
5130,1189
5140,3109
5150,977
5160,2962
5170,896
5180,2874
5190,769
5200,2862
5210,688
5220,2755
5230,711
5240,2869
5250,734
5260,2832
5270,693
5280,2699
5290,501
5300,2624
5310,463
5320,2646
5330,426
5340,2704
5350,499
5360,2684
5370,503
5380,2736
5390,549
5400,2743
5410,537
5420,2759
5430,688
5440,3863
5450,1981
5460,2461
5470,288
5480,2954
5490,593
5500,2830
5510,597
5520,2855
5530,668
5540,2963
5550,710
5560,2993
5570,789
5580,3094
5590,760
5600,3247
5610,871
5620,3263
5630,944
5640,3328
5650,951
5660,3312
5670,857
5680,3175
5690,767
5700,2960
5710,631
5720,2912
5730,541
5740,2838
5750,531
5760,2929
5770,594
5780,2898
5790,626
5800,2955
5810,629
5820,3005
5830,624
5840,3124
5850,619
5860,3071
5870,658
5880,3103
5890,699
5900,3149
5910,681
5920,3167
5930,678
5940,3200
5950,863
5960,3275
5970,844
5980,3240
5990,2032
6000,2000
6010,1977
6020,1957
6030,1931
6040,1905
6050,1464
6060,3989
6070,1456
6080,4095
6090,1428
6100,3973
6110,1339
6120,3723
6130,1200
6140,3779
6150,2354
6160,4095
6170,816
6180,3081
6190,1045
6200,3172
6210,921
6220,3211
6230,879
6240,3119
6250,903
6260,3089
6270,848
6280,3071
6290,912
6300,3009
6310,960
6320,3067
6330,1012
6340,3136
6350,989
6360,3121
6370,951
6380,3050
6390,810
6400,2842
6410,629
6420,2672
6430,621
6440,2582
6450,506
6460,2620
6470,627
6480,2630
6490,679
6500,2671
6510,685
6520,2720
6530,727
6540,2642
6550,747
6560,2655
6570,789
6580,2640
6590,781
6600,2667
6610,829
6620,2603
6630,867
6640,2635
6650,867
6660,2743
6670,1040
6680,2711
6690,1041
6700,2595
6710,912
6720,2559
6730,918
6740,2599
6750,973
6760,2546
6770,1040
6780,2650
6790,959
6800,2559
6810,1155
6820,2622
6830,1136
6840,2559
6850,1413
6860,4095
6870,2089
6880,2057
6890,1134
6900,2784
6910,1244
6920,2676
6930,1277
6940,2679
6950,1369
6960,2677
6970,1392
6980,2721
6990,1935
7000,1921
7010,1920
7020,1904
7030,1888
7040,1905
7050,2448
7060,3559
7070,2546
7080,3497
7090,2343
7100,3208
7110,1984
7120,2849
7130,1716
7140,2576
7150,1500
7160,2429
7170,1411
7180,2310
7190,1388
7200,2263
7210,1351
7220,2208
7230,1356
7240,2161
7250,1328
7260,2115
7270,1287
7280,2067
7290,1261
7300,2039
7310,1261
7320,1978
7330,1302
7340,1947
7350,1297
7360,1936
7370,1415
7380,2046
7390,1499
7400,2085
7410,1479
7420,1919
7430,1386
7440,1839
7450,1450
7460,1808
7470,1498
7480,1835
7490,1533
7500,1890
7510,1601
7520,1905
7530,1770
7540,1980
7550,1767
7560,2032
7570,2214
7580,3632
7590,2839
7600,1712
7610,2243
7620,2434
7630,2434
7640,2461
7650,2515
7660,2505
7670,2624
7680,2535
7690,2725
7700,2599
7710,2821
7720,2625
7730,2903
7740,2715
7750,2990
7760,2722
7770,3120
7780,2700
7790,3084
7800,2668
7810,2978
7820,2387
7830,2800
7840,2192
7850,2587
7860,2080
7870,2494
7880,1990
7890,2515
7900,1955
7910,2587
7920,1910
7930,2579
7940,1939
7950,2544
7960,1869
7970,2523
7980,1762
7990,1820
8000,1840
8010,1841
8020,1870
8030,1887
8040,1904
8050,3200
8060,2465
8070,3216
8080,2352
8090,3140
8100,2176
8110,3057
8120,2131
8130,3059
8140,2107
8150,2857
8160,1702
8170,2685
8180,1535
8190,2607
8200,1456
8210,2515
8220,1369
8230,2489
8240,1296
8250,2447
8260,1216
8270,2510
8280,1137
8290,2447
8300,1155
8310,2558
8320,2107
8330,3878
8340,579
8350,2199
8360,1075
8370,2413
8380,945
8390,2413
8400,910
8410,2441
8420,949
8430,2469
8440,931
8450,1906
8460,1938
8470,1977
8480,2002
8490,2037
8500,2074
8510,2109
8520,2137
8530,2721
8540,999
8550,2635
8560,848
8570,2481
8580,634
8590,2331
8600,539
8610,2272
8620,511
8630,2307
8640,526
8650,2371
8660,574
8670,2451
8680,624
8690,2483
8700,624
8710,2590
8720,699
8730,2547
8740,683
8750,2617
8760,704
8770,2651
8780,747
8790,2622
8800,697
8810,2676
8820,693
8830,2652
8840,859
8850,2863
8860,811
8870,2791
8880,681
8890,2721
8900,615
8910,2672
8920,703
8930,2697
8940,653
8950,2886
8960,704
8970,2911
8980,763
8990,4095
9000,4095
9010,4095
9020,4095
9030,4095
9040,4095
9050,4095
9060,2519
9070,3554
9080,1624
9090,4095
9100,1504
9110,4091
9120,1414
9130,3845
9140,1328
9150,3821
9160,1246
9170,3633
9180,1183
9190,3722
9200,1200
9210,3659
9220,1231
9230,3650
9240,1185
9250,3612
9260,1154
9270,3451
9280,881
9290,3253
9300,682
9310,2971
9320,533
9330,2909
9340,395
9350,2773
9360,400
9370,2871
9380,413
9390,2880
9400,449
9410,2896
9420,464
9430,2884
9440,449
9450,2811
9460,422
9470,2835
9480,421
9490,2847
9500,366
9510,2902
9520,401
9530,2841
9540,426
9550,2866
9560,510
9570,3035
9580,469
9590,3035
9600,550
9610,2821
9620,422
9630,2827
9640,400
9650,2868
9660,420
9670,2905
9680,496
9690,2896
9700,499
9710,2919
9720,526
9730,2907
9740,511
9750,2971
9760,870
9770,4095
9780,1453
9790,2390
9800,583
9810,3168
9820,719
9830,2958
9840,769
9850,3017
9860,835
9870,3024
9880,848
9890,3121
9900,911
9910,3123
9920,907
9930,3216
9940,998
9950,3344
9960,1013
9970,3319
9980,1088
9990,3217
10000,3255
10010,3287
10020,3328
10030,3358
10040,3392
10050,3888
10060,1495
10070,3839
10080,1504
10090,3828
10100,1422
10110,3633
10120,1335
10130,3459
10140,1287
10150,3395
10160,1167
10170,3274
10180,1146
10190,3131
10200,1021
10210,3108
10220,1038
10230,2992
10240,962
10250,2989
10260,910
10270,3005
10280,1008
10290,3070
10300,1120
10310,3101
10320,1117
10330,2957
10340,1057
10350,2897
10360,997
10370,2870
10380,1055
10390,2810
10400,1015
10410,2774
10420,1056
10430,2753
10440,1105
10450,2746
10460,1060
10470,2747
10480,1254
10490,4095
10500,2143
10510,2192
10520,976
10530,2756
10540,1104
10550,2674
10560,1152
10570,2629
10580,1216
10590,2655
10600,1216
10610,2647
10620,1243
10630,2683
10640,1276
10650,2768
10660,1425
10670,2802
10680,1473
10690,2816
10700,1535
10710,2801
10720,1499
10730,2583
10740,1334
10750,2452
10760,1184
10770,2313
10780,1115
10790,2268
10800,1122
10810,2298
10820,1184
10830,2300
10840,1223
10850,2281
10860,1243
10870,2271
10880,1281
10890,2262
10900,1257
10910,2202
10920,1296
10930,2259
10940,1264
10950,2100
10960,1296
10970,2096
10980,1399
10990,3826
11000,3839
11010,3841
11020,3854
11030,3855
11040,3913
11050,2768
11060,2066
11070,2783
11080,2071
11090,2655
11100,1971
11110,2515
11120,1936
11130,2382
11140,1845
11150,2323
11160,1706
11170,2207
11180,1653
11190,2943
11200,3005
11210,1855
11220,1136
11230,2106
11240,1570
11250,1977
11260,1583
11270,1981
11280,1635
11290,1994
11300,1691
11310,2014
11320,1712
11330,1976
11340,1798
11350,1995
11360,1840
11370,2088
11380,1925
11390,2106
11400,1965
11410,2055
11420,1959
11430,1911
11440,1751
11450,1648
11460,1623
11470,1566
11480,1570
11490,1517
11500,1602
11510,1443
11520,1648
11530,1506
11540,1685
11550,1475
11560,1780
11570,1456
11580,1803
11590,1495
11600,1819
11610,1514
11620,1858
11630,1479
11640,1898
11650,1472
11660,1948
11670,1397
11680,1962
11690,1419
11700,2160
11710,1494
11720,2143
11730,1465
11740,2058
11750,1291
11760,1986
11770,1296
11780,2032
11790,1245
11800,2125
11810,1302
11820,2089
11830,1328
11840,2171
11850,1292
11860,2221
11870,1343
11880,2270
11890,1493
11900,3318
11910,2834
11920,1997
11930,1059
11940,2524
11950,1298
11960,2413
11970,1323
11980,2432
11990,3840
12000,3790
12010,3759
12020,3717
12030,3682
12040,3654
12050,2237
12060,3517
12070,2343
12080,3610
12090,2282
12100,3568
12110,2199
12120,3456
12130,1953
12140,3115
12150,1660
12160,2843
12170,1328
12180,2672
12190,1205
12200,2606
12210,1072
12220,2529
12230,1065
12240,2505
12250,1015
12260,2433
12270,908
12280,2538
12290,855
12300,2497
12310,901
12320,2377
12330,768
12340,2480
12350,765
12360,2523
12370,739
12380,1534
12390,1575
12400,1595
12410,1639
12420,2624
12430,798
12440,2635
12450,697
12460,2464
12470,672
12480,2483
12490,650
12500,2492
12510,640
12520,2559
12530,634
12540,2595
12550,646
12560,2608
12570,607
12580,2639
12590,593
12600,2707
12610,1149
12620,4095
12630,894
12640,2241
12650,672
12660,2765
12670,656
12680,2754
12690,725
12700,2880
12710,722
12720,2985
12730,794
12740,2963
12750,891
12760,3019
12770,944
12780,3251
12790,998
12800,3375
12810,1091
12820,3402
12830,1103
12840,3332
12850,978
12860,3200
12870,814
12880,2960
12890,660
12900,2935
12910,582
12920,2905
12930,578
12940,2963
12950,571
12960,3005
12970,648
12980,2998
12990,2691
13000,2632
13010,2637
13020,2598
13030,2559
13040,2535
13050,1488
13060,4095
13070,1457
13080,4095
13090,1406
13100,3985
13110,1408
13120,3997
13130,1285
13140,3819
13150,1084
13160,3440
13170,902
13180,3289
13190,780
13200,3212
13210,720
13220,3163
13230,684
13240,3168
13250,656
13260,3115
13270,672
13280,3092
13290,628
13300,3095
13310,1106
13320,4095
13330,934
13340,2485
13350,624
13360,3005
13370,541
13380,2953
13390,576
13400,2989
13410,576
13420,3026
13430,595
13440,3077
13450,643
13460,3184
13470,730
13480,3229
13490,837
13500,3399
13510,848
13520,3408
13530,915
13540,3435
13550,855
13560,3307
13570,703
13580,3071
13590,633
13600,3039
13610,577
13620,3093
13630,605
13640,3066
13650,673
13660,3131
13670,699
13680,3159
13690,730
13700,3121
13710,753
13720,3197
13730,738
13740,3231
13750,842
13760,3208
13770,857
13780,3213
13790,884
13800,3197
13810,859
13820,3344
13830,993
13840,3261
13850,960
13860,3194
13870,822
13880,3009
13890,777
13900,3027
13910,752
13920,2992
13930,790
13940,2965
13950,778
13960,2970
13970,798
13980,3024
13990,2192
14000,2164
14010,2131
14020,2106
14030,2077
14040,2037
14050,1520
14060,3699
14070,1856
14080,3851
14090,1724
14100,3803
14110,1562
14120,3627
14130,1470
14140,3471
14150,1392
14160,3413
14170,1349
14180,3315
14190,1351
14200,3252
14210,1408
14220,3217
14230,1396
14240,3184
14250,1264
14260,3026
14270,1136
14280,2734
14290,915
14300,2535
14310,816
14320,2457
14330,758
14340,2424
14350,852
14360,2439
14370,805
14380,2451
14390,868
14400,2421
14410,876
14420,2448
14430,890
14440,2384
14450,883
14460,2352
14470,907
14480,2330
14490,880
14500,2284
14510,926
14520,2243
14530,946
14540,2338
14550,1130
14560,2319
14570,1123
14580,2311
14590,923
14600,2238
14610,997
14620,2241
14630,994
14640,2278
14650,1064
14660,2306
14670,1085
14680,2258
14690,1200
14700,2366
14710,1257
14720,2357
14730,1312
14740,2817
14750,2930
14760,2697
14770,901
14780,2379
14790,1477
14800,2305
14810,1454
14820,2358
14830,1506
14840,2384
14850,1535
14860,2418
14870,1535
14880,2383
14890,1600
14900,2423
14910,1780
14920,2508
14930,1867
14940,2539
14950,1907
14960,2559
14970,1875
14980,2442
14990,1362
15000,1359
15010,1364
15020,1365
15030,1389
15040,1359
15050,2271
15060,2778
15070,2339
15080,2688
15090,2291
15100,2629
15110,2251
15120,2435
15130,2123
15140,2370
15150,2007
15160,2202
15170,1968
15180,2087
15190,1844
15200,2003
15210,1811
15220,1925
15230,1809
15240,1875
15250,1952
15260,1867
15270,1877
15280,1766
15290,1722
15300,1664
15310,1703
15320,1590
15330,1699
15340,1535
15350,1711
15360,1520
15370,1774
15380,1535
15390,1773
15400,1490
15410,1815
15420,1503
15430,1849
15440,1815
15450,3402
15460,2387
15470,1405
15480,1371
15490,2002
15500,1498
15510,1997
15520,1471
15530,2031
15540,1470
15550,2069
15560,1510
15570,2166
15580,1490
15590,2245
15600,1586
15610,2343
15620,1621
15630,2411
15640,1713
15650,2498
15660,1721
15670,2451
15680,1639
15690,2378
15700,1433
15710,2288
15720,1291
15730,2173
15740,1216
15750,2160
15760,1227
15770,2143
15780,1153
15790,2204
15800,1142
15810,2206
15820,1107
15830,2221
15840,1056
15850,2263
15860,1106
15870,2279
15880,1104
15890,2325
15900,1104
15910,2327
15920,1105
15930,2405
15940,1136
15950,2471
15960,1285
15970,2504
15980,1215
15990,1689
16000,1723
16010,1744
16020,1766
16030,1789
16040,1809
16050,3298
16060,1773
16070,3381
16080,1806
16090,3313
16100,1663
16110,3204
16120,1475
16130,3067
16140,1371
16150,3421
16160,2886
16170,3304
16180,694
16190,694
16200,688
16210,699
16220,694
16230,2691
16240,976
16250,2621
16260,918
16270,2725
16280,947
16290,2768
16300,947
16310,2896
16320,1023
16330,2939
16340,1105
16350,3066
16360,1131
16370,3063
16380,1000
16390,2995
16400,930
16410,2788
16420,704
16430,2671
16440,596
16450,2605
16460,587
16470,2608
16480,589
16490,2672
16500,592
16510,2613
16520,565
16530,2748
16540,592
16550,2752
16560,639
16570,2816
16580,633
16590,2800
16600,630
16610,2788
16620,643
16630,2850
16640,659
16650,2883
16660,644
16670,3015
16680,823
16690,3053
16700,751
16710,3002
16720,657
16730,2917
16740,629
16750,2976
16760,624
16770,2993
16780,687
16790,3050
16800,669
16810,3094
16820,656
16830,3071
16840,669
16850,3167
16860,662
16870,3425
16880,2015
16890,4095
16900,162
16910,3083
16920,831
16930,3143
16940,679
16950,3234
16960,758
16970,3213
16980,850
16990,2915
17000,2960
17010,2993
17020,3034
17030,3081
17040,3122
17050,4095
17060,1945
17070,4095
17080,2009
17090,4095
17100,1815
17110,4095
17120,1535
17130,4095
17140,1119
17150,3664
17160,917
17170,3386
17180,752
17190,3291
17200,755
17210,3202
17220,671
17230,3216
17240,621
17250,3132
17260,603
17270,3089
17280,557
17290,3133
17300,576
17310,3062
17320,511
17330,3079
17340,449
17350,2994
17360,443
17370,2989
17380,435
17390,3006
17400,486
17410,3142
17420,571
17430,3038
17440,510
17450,2971
17460,432
17470,2935
17480,448
17490,2948
17500,460
17510,2949
17520,442
17530,2971
17540,502
17550,2975
17560,526
17570,3015
17580,555
17590,2997
17600,794
17610,4095
17620,1661
17630,2417
17640,525
17650,3122
17660,620
17670,3018
17680,720
17690,3049
17700,742
17710,3088
17720,771
17730,3129
17740,874
17750,3219
17760,975
17770,3342
17780,1049
17790,3376
17800,1119
17810,3442
17820,1156
17830,3403
17840,1079
17850,3173
17860,967
17870,3006
17880,768
17890,2931
17900,688
17910,2867
17920,762
17930,2863
17940,800
17950,2887
17960,866
17970,2891
17980,897
17990,3698
18000,3745
18010,3791
18020,3826
18030,3878
18040,3917
18050,3902
18060,1747
18070,3799
18080,1778
18090,3711
18100,1659
18110,3559
18120,1535
18130,3523
18140,1571
18150,3349
18160,1412
18170,3029
18180,1200
18190,2798
18200,1104
18210,2749
18220,1021
18230,2697
18240,990
18250,2657
18260,967
18270,2587
18280,986
18290,2559
18300,969
18310,2559
18320,999
18330,3093
18340,2559
18350,2537
18360,559
18370,2559
18380,995
18390,2485
18400,976
18410,2515
18420,944
18430,2448
18440,1155
18450,2466
18460,1155
18470,2559
18480,1274
18490,2608
18500,1376
18510,2661
18520,1467
18530,2817
18540,1527
18550,2779
18560,1456
18570,2672
18580,1360
18590,2390
18600,1221
18610,2304
18620,1136
18630,2207
18640,1075
18650,2212
18660,1089
18670,2251
18680,1214
18690,2233
18700,1239
18710,2166
18720,1230
18730,2224
18740,1239
18750,2165
18760,1283
18770,2179
18780,1334
18790,2095
18800,1337
18810,2067
18820,1312
18830,1966
18840,1392
18850,2054
18860,1521
18870,2064
18880,1433
18890,2058
18900,1325
18910,1941
18920,1212
18930,1871
18940,1374
18950,1904
18960,1422
18970,1903
18980,1441
18990,4095
19000,4095
19010,4095
19020,4095
19030,4095
19040,4095
19050,2832
19060,3522
19070,4095
19080,2103
19090,2219
19100,2326
19110,2300
19120,2041
19130,2177
19140,1887
19150,2106
19160,1861
19170,1952
19180,1878
19190,1933
19200,1809
19210,1895
19220,1869
19230,1914
19240,1920
19250,1874
19260,1946
19270,1861
19280,1915
19290,1765
19300,1749
19310,1488
19320,1666
19330,1328
19340,1498
19350,1246
19360,1489
19370,1209
19380,1552
19390,1232
19400,1571
19410,1232
19420,1625
19430,1219
19440,1660
19450,1239
19460,1661
19470,1217
19480,1771
19490,1248
19500,1810
19510,1296
19520,1836
19530,1253
19540,1845
19550,1261
19560,1968
19570,1264
19580,2067
19590,1479
19600,2192
19610,1458
19620,2164
19630,1389
19640,2073
19650,1296
19660,2160
19670,1311
19680,2161
19690,1341
19700,2306
19710,1357
19720,2310
19730,1395
19740,2343
19750,1393
19760,2354
19770,1377
19780,2592
19790,2324
19800,4095
19810,1070
19820,2225
19830,1488
19840,2493
19850,1316
19860,2557
19870,1390
19880,2577
19890,1378
19900,2624
19910,1421
19920,2685
19930,1431
19940,2768
19950,1519
19960,2907
19970,1677
19980,2809
19990,1762
20000,1789
20010,1807
20020,1829
20030,1852
20040,1856
20050,1892
20060,1920
20070,1934
20080,3419
20090,1883
20100,3523
20110,1863
20120,3536
20130,1782
20140,3350
20150,1664
20160,3241
20170,1510
20180,3142
20190,1394
20200,3043
20210,1309
20220,2960
20230,1200
20240,2901
20250,1121
20260,2829
20270,1008
20280,2749
20290,1061
20300,2934
20310,1043
20320,2864
20330,925
20340,2720
20350,790
20360,2662
20370,793
20380,2660
20390,708
20400,2659
20410,678
20420,2663
20430,675
20440,2695
20450,694
20460,2820
20470,723
20480,2751
20490,999
20500,4095
20510,2112
20520,2331
20530,582
20540,3055
20550,784
20560,2975
20570,809
20580,3006
20590,820
20600,3035
20610,912
20620,3147
20630,924
20640,3249
20650,958
20660,3315
20670,1062
20680,3376
20690,1142
20700,3425
20710,1126
20720,3504
20730,1040
20740,3313
20750,835
20760,3108
20770,719
20780,2980
20790,576
20800,2993
20810,610
20820,2995
20830,618
20840,3041
20850,658
20860,3043
20870,704
20880,3085
20890,635
20900,3137
20910,609
20920,3152
20930,628
20940,3130
20950,627
20960,3146
20970,655
20980,3149
20990,704
21000,3287
21010,791
21020,2161
21030,2197
21040,2227
21050,2256
21060,2287
21070,2320
21080,4095
21090,1425
21100,4095
21110,1374
21120,4095
21130,1329
21140,4095
21150,1232
21160,3871
21170,1145
21180,3767
21190,981
21200,4095
21210,2608
21220,3535
21230,423
21240,3542
21250,821
21260,3415
21270,750
21280,3344
21290,810
21300,3293
21310,790
21320,3355
21330,780
21340,3345
21350,805
21360,3345
21370,862
21380,3346
21390,892
21400,3393
21410,819
21420,3397
21430,772
21440,3229
21450,648
21460,3085
21470,499
21480,2850
21490,445
21500,2815
21510,402
21520,2784
21530,407
21540,2771
21550,368
21560,2770
21570,406
21580,2753
21590,405
21600,2795
21610,416
21620,2759
21630,386
21640,2821
21650,389
21660,2801
21670,450
21680,2872
21690,437
21700,2847
21710,555
21720,3063
21730,744
21740,3023
21750,715
21760,2967
21770,617
21780,2983
21790,630
21800,2923
21810,725
21820,2934
21830,694
21840,3051
21850,773
21860,2964
21870,768
21880,3008
21890,817
21900,2976
21910,1008
21920,4095
21930,2126
21940,2559
21950,623
21960,3136
21970,927
21980,2919
21990,938
22000,2957
22010,971
22020,3379
22030,3426
22040,3474
22050,3523
22060,3562
22070,3612
22080,4039
22090,2000
22100,4046
22110,2078
22120,4009
22130,2015
22140,3911
22150,1805
22160,3600
22170,1470
22180,3209
22190,1214
22200,2869
22210,1053
22220,2771
22230,950
22240,2688
22250,911
22260,2624
22270,887
22280,2653
22290,868
22300,2590
22310,890
22320,2509
22330,862
22340,2487
22350,755
22360,2415
22370,805
22380,2345
22390,833
22400,2319
22410,780
22420,2331
22430,849
22440,2433
22450,974
22460,2419
22470,939
22480,2335
22490,871
22500,2229
22510,927
22520,2243
22530,908
22540,2289
22550,960
22560,2339
22570,1056
22580,2314
22590,1077
22600,2319
22610,1085
22620,2293
22630,1153
22640,2783
22650,2747
22660,2433
22670,719
22680,2382
22690,1243
22700,2269
22710,1233
22720,2272
22730,1295
22740,2322
22750,1360
22760,2352
22770,1425
22780,2452
22790,1524
22800,2454
22810,1643
22820,2559
22830,1702
22840,2541
22850,1790
22860,2551
22870,1747
22880,2464
22890,1605
22900,2262
22910,1466
22920,2083
22930,1360
22940,2006
22950,1407
22960,2032
22970,1403
22980,2037
22990,1476
23000,1991
23010,1472
23020,3983
23030,4048
23040,4057
23050,4095
23060,4095
23070,4095
23080,2736
23090,2282
23100,2717
23110,2323
23120,2541
23130,2206
23140,2517
23150,2289
23160,2487
23170,2044
23180,2320
23190,1950
23200,2045
23210,1839
23220,1967
23230,1807
23240,1914
23250,1843
23260,1827
23270,1762
23280,1809
23290,1824
23300,1743
23310,1835
23320,1743
23330,1825
23340,1776
23350,2537
23360,3335
23370,1655
23380,1232
23390,1953
23400,1600
23410,1882
23420,1621
23430,1884
23440,1647
23450,1923
23460,1638
23470,2059
23480,1632
23490,2128
23500,1744
23510,2179
23520,1776
23530,2240
23540,1791
23550,2318
23560,1795
23570,2374
23580,1723
23590,2319
23600,1561
23610,2160
23620,1360
23630,2016
23640,1297
23650,2029
23660,1308
23670,2053
23680,1328
23690,2155
23700,1342
23710,2128
23720,1397
23730,2193
23740,1393
23750,2269
23760,1429
23770,2269
23780,2087
23790,2037
23800,2007
23810,1958
23820,1311
23830,2357
23840,1285
23850,2298
23860,1264
23870,2512
23880,1377
23890,2476
23900,1309
23910,2409
23920,1203
23930,2387
23940,1193
23950,2395
23960,1209
23970,2433
23980,1185
23990,2476
24000,1224
24010,2519
24020,4095
24030,4095
24040,4095
24050,4095
24060,4095
24070,4095
24080,3978
24090,3173
24100,1552
24110,3627
24120,1919
24130,3315
24140,1754
24150,3197
24160,1674
24170,3068
24180,1519
24190,3007
24200,1386
24210,2995
24220,1328
24230,2911
24240,1286
24250,2955
24260,1278
24270,2944
24280,1233
24290,2907
24300,1142
24310,2767
24320,882
24330,2590
24340,629
24350,2480
24360,566
24370,2426
24380,530
24390,2479
24400,561
24410,2480
24420,594
24430,2512
24440,589
24450,2551
24460,560
24470,2618
24480,592
24490,2544
24500,651
24510,2608
24520,608
24530,2647
24540,591
24550,2608
24560,609
24570,2694
24580,590
24590,2771
24600,754
24610,2953
24620,753
24630,2951
24640,704
24650,2817
24660,653
24670,2849
24680,676
24690,2887
24700,737
24710,2955
24720,686
24730,2994
24740,701
24750,3022
24760,693
24770,3023
24780,709
24790,3106
24800,1371
24810,4095
24820,1049
24830,2689
24840,853
24850,3173
24860,781
24870,3153
24880,815
24890,3216
24900,802
24910,3270
24920,836
24930,3279
24940,922
24950,3406
24960,985
24970,3522
24980,1042
24990,3669
25000,1090
25010,3760
25020,2970
25030,2929
25040,2907
25050,2883
25060,2868
25070,2825
25080,1373
25090,4095
25100,1306
25110,4095
25120,1232
25130,3942
25140,1136
25150,3803
25160,1055
25170,3657
25180,945
25190,3568
25200,842
25210,3430
25220,774
25230,3333
25240,703
25250,3263
25260,631
25270,3239
25280,603
25290,3184
25300,560
25310,3114
25320,504
25330,3136
25340,608
25350,3195
25360,575
25370,3166
25380,484
25390,2983
25400,417
25410,2980
25420,394
25430,3044
25440,400
25450,3059
25460,447
25470,3056
25480,526
25490,3134
25500,528
25510,3137
25520,624
25530,3157
25540,1181
25550,4095
25560,941
25570,2673
25580,654
25590,3184
25600,638
25610,3149
25620,685
25630,3233
25640,737
25650,3341
25660,803
25670,3349
25680,827
25690,3370
25700,915
25710,3488
25720,944
25730,3558
25740,1049
25750,3575
25760,1040
25770,3597
25780,933
25790,3391
25800,751
25810,3112
25820,643
25830,3020
25840,613
25850,3024
25860,626
25870,2996
25880,654
25890,3042
25900,708
25910,3019
25920,675
25930,3045
25940,679
25950,3021
25960,736
25970,3063
25980,756
25990,3055
26000,802
26010,3037
26020,2218
26030,2189
26040,2158
26050,2143
26060,2093
26070,2087
26080,1694
26090,4063
26100,1706
26110,3892
26120,1473
26130,3686
26140,1425
26150,3460
26160,1315
26170,3321
26180,1232
26190,3181
26200,1163
26210,3057
26220,1095
26230,3010
26240,961
26250,2918
26260,1187
26270,4095
26280,2043
26290,2184
26300,778
26310,2749
26320,841
26330,2622
26340,828
26350,2623
26360,878
26370,2559
26380,904
26390,2559
26400,907
26410,2655
26420,927
26430,2673
26440,1058
26450,2699
26460,1200
26470,2707
26480,1200
26490,2711
26500,1171
26510,2585
26520,1038
26530,2400
26540,942
26550,2342
26560,882
26570,2320
26580,893
26590,2326
26600,967
26610,2295
26620,977
26630,2353
26640,1090
26650,2411
26660,1107
26670,2403
26680,1139
26690,2380
26700,1130
26710,2398
26720,1177
26730,2369
26740,1232
26750,2390
26760,1271
26770,2362
26780,1296
26790,2448
26800,1458
26810,2434
26820,1410
26830,2419
26840,1321
26850,2269
26860,1296
26870,2276
26880,1315
26890,2312
26900,1335
26910,2240
26920,1396
26930,2282
26940,1407
26950,2266
26960,1405
26970,2304
26980,1458
26990,2526
27000,2771
27010,3280
27020,1531
27030,1503
27040,1502
27050,1493
27060,1486
27070,1490
27080,2327
27090,3034
27100,2420
27110,3024
27120,2406
27130,2899
27140,2381
27150,2809
27160,2321
27170,2862
27180,2391
27190,2715
27200,2276
27210,2661
27220,2165
27230,2446
27240,2000
27250,2183
27260,1801
27270,1922
27280,1625
27290,1809
27300,1552
27310,1743
27320,1563
27330,1697
27340,1648
27350,1709
27360,1643
27370,1712
27380,1645
27390,1680
27400,1648
27410,1648
27420,1645
27430,1635
27440,1705
27450,1584
27460,1696
27470,1600
27480,1733
27490,1520
27500,1794
27510,1594
27520,1831
27530,1712
27540,1906
27550,1683
27560,1900
27570,1530
27580,1474
27590,1520
27600,1535
27610,1595
27620,1919
27630,1440
27640,1901
27650,1470
27660,1942
27670,1449
27680,1968
27690,1444
27700,1952
27710,1357
27720,2165
27730,2501
27740,3123
27750,888
27760,1847
27770,1478
27780,2102
27790,1397
27800,2157
27810,1392
27820,2272
27830,1473
27840,2309
27850,1472
27860,2382
27870,1521
27880,2416
27890,1615
27900,2551
27910,1669
27920,2605
27930,1708
27940,2674
27950,1665
27960,2611
27970,1535
27980,2513
27990,1317
28000,2319
28010,1199
28020,1374
28030,1393
28040,1406
28050,1426
28060,1439
28070,1463
28080,3095
28090,1872
28100,3185
28110,1915
28120,3124
28130,1779
28140,3035
28150,1623
28160,3009
28170,1518
28180,2804
28190,1399
28200,2704
28210,1232
28220,2705
28230,1279
28240,2703
28250,1186
28260,2631
28270,1046
28280,2486
28290,912
28300,2491
28310,828
28320,2469
28330,842
28340,2444
28350,880
28360,2427
28370,799
28380,2492
28390,737
28400,2494
28410,747
28420,2478
28430,1040
28440,4095
28450,1925
28460,2000
28470,608
28480,2663
28490,700
28500,2610
28510,741
28520,2688
28530,769
28540,2757
28550,832
28560,2807
28570,826
28580,2886
28590,912
28600,2925
28610,966
28620,3056
28630,1023
28640,3154
28650,1065
28660,3119
28670,936
28680,3008
28690,784
28700,2838
28710,701
28720,2795
28730,575
28740,2779
28750,592
28760,2795
28770,625
28780,2824
28790,655
28800,2939
28810,705
28820,2929
28830,730
28840,2898
28850,717
28860,2878
28870,656
28880,2986
28890,644
28900,3035
28910,755
28920,2922
28930,764
28940,3051
28950,867
28960,3223
28970,911
28980,3229
28990,779
29000,3171
29010,694
29020,2077
29030,2128
29040,2116
29050,2181
29060,2208
29070,2229
29080,4095
29090,1535
29100,4095
29110,1535
29120,4095
29130,1386
29140,4095
29150,2367
29160,4095
29170,1221
29180,3374
29190,1179
29200,3732
29210,896
29220,3676
29230,943
29240,3445
29250,864
29260,3469
29270,852
29280,3502
29290,867
29300,3511
29310,848
29320,3563
29330,941
29340,3623
29350,922
29360,3687
29370,881
29380,3562
29390,756
29400,3249
29410,603
29420,3067
29430,413
29440,2941
29450,368
29460,2951
29470,414
29480,2970
29490,432
29500,2970
29510,481
29520,3008
29530,397
29540,3035
29550,468
29560,2967
29570,459
29580,2989
29590,425
29600,3098
29610,481
29620,2980
29630,501
29640,3052
29650,506
29660,3155
29670,672
29680,3168
29690,688
29700,3103
29710,522
29720,3069
29730,612
29740,3015
29750,626
29760,3057
29770,641
29780,3053
29790,688
29800,3019
29810,713
29820,3136
29830,722
29840,3105
29850,761
29860,3510
29870,2065
29880,4055
29890,317
29900,2979
29910,972
29920,3089
29930,800
29940,3133
29950,830
29960,3148
29970,929
29980,3152
29990,970
30000,3241
30010,1058
30020,3601
30030,3721
30040,3751
30050,3807
30060,3855
30070,3915
30080,4095
30090,2109
30100,4095
30110,1902
30120,3930
30130,1647
30140,3552
30150,1302
30160,3394
30170,1188
30180,3188
30190,1158
30200,3055
30210,1045
30220,3001
30230,1042
30240,2863
30250,942
30260,2864
30270,899
30280,2781
30290,894
30300,2671
30310,852
30320,2644
30330,845
30340,2581
30350,767
30360,2559
30370,833
30380,2458
30390,793
30400,2513
30410,935
30420,2545
30430,896
30440,2512
30450,848
30460,2393
30470,867
30480,2369
30490,832
30500,2319
30510,944
30520,2273
30530,947
30540,2278
30550,945
30560,2302
30570,920
30580,2344
30590,916
30600,2448
30610,1458
30620,3999
30630,1278
30640,1875
30650,1211
30660,2453
30670,1138
30680,2441
30690,1243
30700,2464
30710,1297
30720,2480
30730,1361
30740,2559
30750,1527
30760,2603
30770,1627
30780,2675
30790,1663
30800,2715
30810,1712
30820,2713
30830,1761
30840,2643
30850,1713
30860,2455
30870,1535
30880,2247
30890,1362
30900,2141
30910,1360
30920,2118
30930,1374
30940,2130
30950,1406
30960,2145
30970,1430
30980,2102
30990,1463
31000,2098
31010,1552
31020,4095
31030,4095
31040,4095
31050,4095
31060,4095
31070,4095
31080,2801
31090,2249
31100,2868
31110,2318
31120,2663
31130,2359
31140,2637
31150,2269
31160,2514
31170,2125
31180,2288
31190,1968
31200,2160
31210,1872
31220,2080
31230,1819
31240,1909
31250,1824
31260,1815
31270,1824
31280,1780
31290,1727
31300,1713
31310,1731
31320,1712
31330,1792
31340,2132
31350,3387
31360,1941
31370,1264
31380,1619
31390,2358
31400,2402
31410,2433
31420,2483
31430,2454
31440,1424
31450,1767
31460,1421
31470,1904
31480,1444
31490,1892
31500,1535
31510,1967
31520,1553
31530,2111
31540,1602
31550,2231
31560,1602
31570,2245
31580,1535
31590,2128
31600,1379
31610,1986
31620,1195
31630,1943
31640,1145
31650,1893
31660,1109
31670,1912
31680,1098
31690,1956
31700,1110
31710,2099
31720,1123
31730,2075
31740,1116
31750,2151
31760,1170
31770,2161
31780,1135
31790,2206
31800,1143
31810,2237
31820,1106
31830,2298
31840,1065
31850,2309
31860,1165
31870,2479
31880,1229
31890,2503
31900,1217
31910,2407
31920,1040
31930,2449
31940,1067
31950,2450
31960,1068
31970,2514
31980,1096
31990,2587
32000,1087
32010,2631
32020,4095
32030,4095
32040,4095
32050,4095
32060,4095
32070,4095
32080,3774
32090,3971
32100,1153
32110,3499
32120,1728
32130,3277
32140,1535
32150,3249
32160,1442
32170,3149
32180,1378
32190,3138
32200,1360
32210,3114
32220,1282
32230,3150
32240,1294
32250,3189
32260,1267
32270,3258
32280,1277
32290,3229
32300,1215
32310,3099
32320,1008
32330,2904
32340,766
32350,2739
32360,594
32370,2672
32380,553
32390,2649
32400,560
32410,2676
32420,567
32430,2687
32440,597
32450,2706
32460,575
32470,2759
32480,590
32490,2759
32500,589
32510,2800
32520,563
32530,2829
32540,570
32550,2864
32560,606
32570,2874
32580,586
32590,2947
32600,692
32610,3139
32620,688
32630,3059
32640,688
32650,2942
32660,607
32670,3019
32680,593
32690,3055
32700,625
32710,3063
32720,628
32730,3230
32740,651
32750,3120
32760,722
32770,3151
32780,678
32790,3250
32800,958
32810,4095
32820,1820
32830,2652
32840,656
32850,3403
32860,698
32870,3285
32880,703
32890,3301
32900,750
32910,3346
32920,795
32930,3471
32940,802
32950,3530
32960,895
32970,3527
32980,956
32990,3701
33000,979
33010,3883
33020,2737
33030,2702
33040,2666
33050,2631
33060,2578
33070,2541
33080,1371
33090,4095
33100,1253
33110,4080
33120,1228
33130,3925
33140,1104
33150,3871
33160,1018
33170,3583
33180,927
33190,3471
33200,842
33210,3365
33220,722
33230,3293
33240,710
33250,3164
33260,651
33270,3084
33280,577
33290,3115
33300,550
33310,3130
33320,569
33330,3101
33340,627
33350,3207
33360,635
33370,3167
33380,633
33390,2983
33400,549
33410,2983
33420,541
33430,2987
33440,560
33450,2898
33460,587
33470,2929
33480,591
33490,2972
33500,560
33510,2921
33520,585
33530,2921
33540,1135
33550,4095
33560,1009
33570,2405
33580,697
33590,2997
33600,945
33610,3202
33620,1005
33630,3188
33640,1049
33650,3318
33660,1071
33670,3292
33680,1167
33690,3320
33700,1203
33710,3403
33720,1233
33730,3483
33740,1370
33750,3505
33760,1360
33770,3392
33780,1324
33790,3171
33800,1049
33810,2997
33820,933
33830,2803
33840,911
33850,2753
33860,913
33870,2829
33880,898
33890,2831
33900,967
33910,2769
33920,999
33930,2745
33940,1034
33950,2806
33960,1087
33970,2711
33980,1109
33990,2742
34000,1049
34010,2737
34020,1857
34030,1847
34040,1824
34050,1799
34060,1786
34070,1770
34080,2013
34090,3561
34100,1973
34110,3326
34120,1799
34130,3233
34140,1707
34150,3091
34160,1648
34170,2935
34180,1571
34190,2821
34200,1485
34210,2702
34220,1341
34230,2684
34240,1379
34250,2620
34260,2120
34270,4019
34280,1278
34290,1965
34300,1305
34310,2382
34320,1251
34330,2323
34340,1263
34350,2287
34360,1232
34370,2321
34380,1345
34390,2266
34400,1399
34410,2253
34420,1475
34430,2352
34440,1581
34450,2346
34460,1612
34470,2383
34480,1616
34490,2266
34500,1493
34510,2091
34520,1291
34530,1911
34540,1227
34550,1808
34560,1168
34570,1759
34580,1220
34590,1773
34600,1233
34610,1750
34620,1345
34630,1811
34640,1439
34650,1809
34660,1473
34670,1788
34680,1482
34690,1753
34700,1535
34710,1696
34720,1503
34730,1841
34740,1617
34750,1711
34760,1662
34770,1887
34780,1783
34790,1806
34800,1781
34810,1723
34820,1664
34830,1702
34840,1771
34850,1618
34860,1774
34870,1635
34880,1817
34890,1630
34900,1839
34910,1655
34920,1858
34930,1691
34940,1919
34950,1573
34960,2071
34970,2000
34980,3757
34990,1837
35000,1569
35010,1535
35020,1351
35030,1358
35040,1349
35050,1364
35060,1390
35070,1402
35080,2807
35090,2303
35100,2982
35110,2269
35120,3042
35130,2179
35140,2993
35150,2167
35160,3664
35170,3696
35180,3718
35190,3737
35200,3793
35210,1689
35220,2578
35230,1450
35240,2307
35250,1201
35260,2135
35270,1051
35280,2165
35290,1009
35300,2149
35310,976
35320,2155
35330,1008
35340,2220
35350,966
35360,2274
35370,983
35380,2264
35390,1019
35400,2326
35410,944
35420,2333
35430,965
35440,2374
35450,973
35460,2409
35470,1009
35480,2480
35490,1043
35500,2656
35510,1055
35520,2670
35530,1021
35540,2581
35550,880
35560,2542
35570,878
35580,2605
35590,936
35600,2646
35610,913
35620,2697
35630,905
35640,2736
35650,911
35660,2809
35670,881
35680,2771
35690,1105
35700,4048
35710,2384
35720,2403
35730,651
35740,3043
35750,845
35760,2864
35770,909
35780,2972
35790,971
35800,3017
35810,995
35820,3095
35830,1005
35840,3146
35850,1044
35860,3123
35870,1207
35880,3505
35890,1122
35900,3449
35910,1183
35920,3424
35930,1075
35940,3203
35950,891
35960,3056
35970,699
35980,2899
35990,525
36000,2911
36010,544
36020,1911
36030,1936
36040,1966
36050,1991
36060,2063
36070,2077
36080,4041
36090,1227
36100,3927
36110,1363
36120,3994
36130,1177
36140,3763
36150,1177
36160,3583
36170,903
36180,3583
36190,855
36200,3323
36210,947
36220,3440
36230,752
36240,3381
36250,759
36260,3201
36270,497
36280,3043
36290,430
36300,2992
36310,346
36320,3116
36330,511
36340,2909
36350,564
36360,3038
36370,387
36380,3056
36390,432
36400,3125
36410,496
36420,4095
36430,2014
36440,2700
36450,307
36460,3515
36470,687
36480,3296
36490,781
36500,3523
36510,903
36520,3563
36530,903
36540,3743
36550,993
36560,3728
36570,1200
36580,4077
36590,1315
36600,4079
36610,1408
36620,4095
36630,1382
36640,4095
36650,1312
36660,4095
36670,1301
36680,3841
36690,1135
36700,3622
36710,1040
36720,3418
36730,1143
36740,3694
36750,1185
36760,3600
36770,1209
36780,3786
36790,1184
36800,3920
36810,1265
36820,3787
36830,1233
36840,3453
36850,1300
36860,3415
36870,1126
36880,3527
36890,1216
36900,3393
36910,1393
36920,3598
36930,1210
36940,3600
36950,1088
36960,3312
36970,1096
36980,3140
36990,1121
37000,3216
37010,1047
37020,3375
37030,3469
37040,3471
37050,3449
37060,3550
37070,3604
37080,4048
37090,1810
37100,4068
37110,2506
37120,4095
37130,2244
37140,3031
37150,1637
37160,3504
37170,1354
37180,3358
37190,1294
37200,3239
37210,1225
37220,3093
37230,1200
37240,3003
37250,1168
37260,2978
37270,1199
37280,3023
37290,1194
37300,3094
37310,1291
37320,2941
37330,1232
37340,2897
37350,1152
37360,2605
37370,1008
37380,2445
37390,799
37400,2285
37410,815
37420,2252
37430,784
37440,2219
37450,768
37460,2310
37470,803
37480,2247
37490,925
37500,2293
37510,901
37520,2303
37530,1002
37540,2234
37550,999
37560,2156
37570,1169
37580,2218
37590,1083
37600,2316
37610,1204
37620,2304
37630,1258
37640,2213
37650,1122
37660,2169
37670,1120
37680,2073
37690,1221
37700,2063
37710,1223
37720,2138
37730,1314
37740,2123
37750,1377
37760,2128
37770,1353
37780,2094
37790,1437
37800,2487
37810,3030
37820,2542
37830,976
37840,2064
37850,1632
37860,2027
37870,1523
37880,2069
37890,1600
37900,2003
37910,1680
37920,2087
37930,1695
37940,2176
37950,1791
37960,2060
37970,1846
37980,2166
37990,1959
38000,2218
38010,2016
38020,4095
38030,4095
38040,4095
38050,4095
38060,4095
38070,4095
38080,2450
38090,2384
38100,2369
38110,2316
38120,2227
38130,2302
38140,2107
38150,2171
38160,1977
38170,2178
38180,1827
38190,2089
38200,1712
38210,2063
38220,1559
38230,1905
38240,1470
38250,1866
38260,1378
38270,1865
38280,1363
38290,1859
38300,1280
38310,1939
38320,1264
38330,1919
38340,1240
38350,1897
38360,1037
38370,1775
38380,997
38390,1774
38400,1011
38410,1849
38420,949
38430,1905
38440,982
38450,1952
38460,1040
38470,1999
38480,996
38490,2062
38500,1008
38510,2656
38520,2581
38530,2086
38540,608
38550,2256
38560,1040
38570,2259
38580,1058
38590,2303
38600,1089
38610,2437
38620,1106
38630,2513
38640,1152
38650,2610
38660,1149
38670,2670
38680,1264
38690,2773
38700,1354
38710,2927
38720,1344
38730,2938
38740,1252
38750,2885
38760,1085
38770,2683
38780,971
38790,2515
38800,832
38810,2531
38820,768
38830,2558
38840,795
38850,2591
38860,799
38870,2612
38880,719
38890,2638
38900,684
38910,2707
38920,803
38930,2589
38940,3098
38950,3085
38960,3069
38970,3109
38980,793
38990,2881
39000,775
39010,2929
39020,3627
39030,3481
39040,3538
39050,3494
39060,3456
39070,3472
39080,1593
39090,3969
39100,1594
39110,4095
39120,1497
39130,3952
39140,1334
39150,3935
39160,1280
39170,3773
39180,1185
39190,3706
39200,1115
39210,3568
39220,1004
39230,3675
39240,1834
39250,4095
39260,816
39270,2947
39280,931
39290,3345
39300,701
39310,3328
39320,745
39330,3325
39340,720
39350,3363
39360,720
39370,3414
39380,791
39390,3455
39400,803
39410,3665
39420,847
39430,3694
39440,927
39450,3703
39460,910
39470,3632
39480,752
39490,3422
39500,592
39510,3158
39520,438
39530,3109
39540,384
39550,3099
39560,416
39570,3190
39580,421
39590,3173
39600,445
39610,3152
39620,490
39630,3217
39640,465
39650,3206
39660,574
39670,3209
39680,530
39690,3233
39700,496
39710,3295
39720,475
39730,3287
39740,562
39750,3241
39760,577
39770,3325
39780,685
39790,3361
39800,685
39810,3324
39820,523
39830,3184
39840,527
39850,3249
39860,532
39870,3188
39880,576
39890,3218
39900,546
39910,3191
39920,659
39930,3179
39940,592
39950,3247
39960,630
39970,3335
39980,1392
39990,4095
40000,774
40010,2774
40020,2317
40030,2279
40040,2250
40050,2213
40060,2192
40070,2160
40080,1535
40090,4095
40100,1594
40110,4095
40120,1600
40130,4095
40140,1597
40150,4095
40160,1571
40170,4080
40180,1457
40190,4010
40200,1399
40210,3814
40220,1168
40230,3408
40240,926
40250,3130
40260,789
40270,2899
40280,733
40290,2853
40300,695
40310,2832
40320,688
40330,2750
40340,754
40350,2769
40360,672
40370,2819
40380,699
40390,2782
40400,752
40410,2663
40420,681
40430,2665
40440,749
40450,2651
40460,768
40470,2619
40480,740
40490,2593
40500,754
40510,2534
40520,763
40530,2602
40540,815
40550,2614
40560,994
40570,2595
40580,961
40590,2542
40600,830
40610,2494
40620,880
40630,2403
40640,977
40650,2462
40660,1039
40670,2432
40680,1051
40690,2443
40700,1082
40710,2448
40720,1106
40730,2471
40740,1098
40750,2669
40760,2381
40770,3338
40780,769
40790,2188
40800,1278
40810,2385
40820,1251
40830,2399
40840,1259
40850,2368
40860,1359
40870,2386
40880,1443
40890,2342
40900,1439
40910,2479
40920,1570
40930,2480
40940,1670
40950,2480
40960,1744
40970,2471
40980,1758
40990,2435
41000,1622
41010,2256
41020,1166
41030,1155
41040,1152
41050,1142
41060,1136
41070,1136
41080,2091
41090,2671
41100,2221
41110,2621
41120,2130
41130,2528
41140,2103
41150,2384
41160,1984
41170,2273
41180,1899
41190,2179
41200,1852
41210,2017
41220,1799
41230,1937
41240,1718
41250,1808
41260,1702
41270,1763
41280,1647
41290,1700
41300,1702
41310,1618
41320,1734
41330,1589
41340,1743
41350,1534
41360,1763
41370,1600
41380,1902
41390,1553
41400,1891
41410,1409
41420,1826
41430,1313
41440,1817
41450,1305
41460,1731
41470,1261
41480,1686
41490,1274
41500,1681
41510,1220
41520,1853
41530,1258
41540,1872
41550,1223
41560,1926
41570,1535
41580,3438
41590,2205
41600,1523
41610,1106
41620,2179
41630,1171
41640,2099
41650,1229
41660,2217
41670,1204
41680,2266
41690,1250
41700,2307
41710,1316
41720,2414
41730,1313
41740,2559
41750,1472
41760,2718
41770,1505
41780,2768
41790,1582
41800,2785
41810,1470
41820,2722
41830,1247
41840,2613
41850,1009
41860,2543
41870,1045
41880,2434
41890,967
41900,2502
41910,979
41920,2512
41930,982
41940,2625
41950,912
41960,2625
41970,974
41980,2688
41990,993
42000,2785
42010,1036
42020,1650
42030,1675
42040,1674
42050,1717
42060,1741
42070,1767
42080,3771
42090,1771
42100,3879
42110,1667
42120,3755
42130,1535
42140,3600
42150,1450
42160,3522
42170,1368
42180,3502
42190,1265
42200,3295
42210,1039
42220,3200
42230,911
42240,3082
42250,781
42260,3045
42270,806
42280,3024
42290,701
42300,3008
42310,694
42320,2999
42330,641
42340,3024
42350,613
42360,3229
42370,1760
42380,4095
42390,167
42400,2864
42410,728
42420,3021
42430,589
42440,3063
42450,509
42460,3139
42470,590
42480,3147
42490,585
42500,3211
42510,628
42520,3306
42530,700
42540,3342
42550,784
42560,3461
42570,821
42580,3482
42590,860
42600,3440
42610,692
42620,3167
42630,511
42640,3068
42650,364
42660,3001
42670,355
42680,3037
42690,347
42700,3034
42710,383
42720,3088
42730,426
42740,3122
42750,1535
42760,1584
42770,1624
42780,1634
42790,1694
42800,3163
42810,426
42820,3101
42830,445
42840,3099
42850,425
42860,3137
42870,463
42880,3177
42890,453
42900,3163
42910,451
42920,3207
42930,560
42940,3303
42950,676
42960,3472
42970,608
42980,3447
42990,639
43000,3255
43010,571
43020,2642
43030,2687
43040,2723
43050,2767
43060,2800
43070,2815
43080,4095
43090,1441
43100,4095
43110,1440
43120,4095
43130,1317
43140,4095
43150,1664
43160,4095
43170,2201
43180,2999
43190,1106
43200,3721
43210,947
43220,3489
43230,947
43240,3457
43250,902
43260,3371
43270,879
43280,3398
43290,887
43300,3393
43310,916
43320,3457
43330,960
43340,3539
43350,1094
43360,3520
43370,1125
43380,3453
43390,1039
43400,3217
43410,803
43420,2974
43430,663
43440,2858
43450,646
43460,2818
43470,640
43480,2786
43490,682
43500,2826
43510,719
43520,2806
43530,647
43540,2850
43550,766
43560,2806
43570,816
43580,2813
43590,851
43600,2788
43610,857
43620,2825
43630,883
43640,2766
43650,865
43660,2704
43670,895
43680,2694
43690,918
43700,2713
43710,931
43720,2721
43730,1098
43740,2752
43750,1054
43760,2663
43770,1000
43780,2486
43790,992
43800,2507
43810,993
43820,2538
43830,1114
43840,2521
43850,999
43860,2559
43870,1197
43880,2559
43890,1200
43900,2593
43910,1267
43920,2686
43930,2271
43940,4031
43950,1142
43960,2191
43970,1484
43980,2534
43990,1374
44000,2541
44010,1398
44020,4095
44030,4095
44040,4095
44050,4095
44060,4095
44070,4095
44080,3323
44090,2427
44100,3383
44110,2496
44120,3365
44130,2518
44140,3167
44150,2397
44160,3031
44170,2176
44180,2687
44190,1859
44200,2385
44210,1629
44220,2230
44230,1561
44240,2090
44250,1498
44260,2001
44270,1491
44280,1945
44290,1457
44300,1910
44310,1467
44320,1808
44330,1462
44340,1789
44350,1429
44360,1712
44370,1472
44380,1695
44390,1514
44400,1678
44410,1500
44420,1707
44430,1583
44440,1627
44450,1571
44460,1751
44470,1772
44480,1790
44490,1848
44500,1722
44510,1771
44520,1599
44530,1683
44540,1595
44550,1746
44560,1522
44570,1823
44580,1535
44590,1853
44600,1552
44610,1892
44620,1525
44630,1982
44640,1535
44650,1988
44660,1623
44670,2803
44680,3207
44690,1950
44700,1068
44710,2279
44720,1470
44730,2102
44740,1478
44750,2170
44760,1425
44770,2170
44780,1374
44790,2257
44800,1437
44810,2350
44820,1467
44830,2401
44840,1567
44850,2623
44860,1599
44870,2699
44880,1627
44890,2695
44900,1623
44910,2640
44920,1382
44930,2513
44940,1285
44950,2416
44960,1083
44970,2367
44980,1056
44990,2470
45000,1010
45010,2453
45020,4095
45030,4095
45040,4078
45050,4095
45060,4001
45070,3968
45080,1904
45090,3453
45100,1822
45110,3453
45120,1721
45130,3323
45140,1515
45150,3183
45160,1403
45170,3056
45180,1215
45190,3004
45200,1180
45210,3021
45220,1179
45230,2990
45240,1103
45250,2977
45260,896
45270,2811
45280,807
45290,2825
45300,806
45310,2816
45320,776
45330,2825
45340,784
45350,2832
45360,738
45370,2900
45380,715
45390,2877
45400,678
45410,3326
45420,2191
45430,3511
45440,79
45450,2914
45460,774
45470,2913
45480,668
45490,3005
45500,683
45510,3051
45520,714
45530,3143
45540,734
45550,3152
45560,787
45570,3341
45580,814
45590,3396
45600,927
45610,3478
45620,897
45630,3503
45640,879
45650,3371
45660,729
45670,3158
45680,550
45690,3030
45700,426
45710,2986
45720,391
45730,3030
45740,419
45750,2992
45760,418
45770,3054
45780,461
45790,3123
45800,466
45810,3135
45820,466
45830,3117
45840,474
45850,3120
45860,416
45870,3117
45880,493
45890,3166
45900,488
45910,3152
45920,487
45930,3248
45940,663
45950,3189
45960,688
45970,3200
45980,491
45990,3116
46000,426
46010,3101
46020,2588
46030,2544
46040,2506
46050,2476
46060,2435
46070,2405
46080,1309
46090,4095
46100,1300
46110,4095
46120,1237
46130,4095
46140,2605
46150,4095
46160,773
46170,3632
46180,1058
46190,3711
46200,916
46210,3583
46220,872
46230,3621
46240,858
46250,3568
46260,855
46270,3524
46280,848
46290,3566
46300,882
46310,3618
46320,988
46330,3702
46340,986
46350,3648
46360,988
46370,3556
46380,816
46390,3309
46400,643
46410,3046
46420,570
46430,2934
46440,498
46450,2914
46460,523
46470,2929
46480,526
46490,2872
46500,620
46510,2918
46520,558
46530,2911
46540,638
46550,2896
46560,1169
46570,1122
46580,1093
46590,1059
46600,606
46610,2819
46620,802
46630,2963
46640,785
46650,2919
46660,755
46670,2800
46680,705
46690,2731
46700,748
46710,2768
46720,754
46730,2735
46740,822
46750,2704
46760,835
46770,2725
46780,891
46790,2765
46800,909
46810,2741
46820,1133
46830,4095
46840,2092
46850,2195
46860,909
46870,2851
46880,1082
46890,2686
46900,1109
46910,2755
46920,1151
46930,2782
46940,1250
46950,2768
46960,1308
46970,2773
46980,1342
46990,2855
47000,1471
47010,2857
47020,1880
47030,1853
47040,1835
47050,1810
47060,1795
47070,1776
47080,2030
47090,3225
47100,1987
47110,3090
47120,1831
47130,2953
47140,1825
47150,2832
47160,1741
47170,2682
47180,1631
47190,2555
47200,1565
47210,2527
47220,1535
47230,2390
47240,1502
47250,2259
47260,1433
47270,2170
47280,1408
47290,2160
47300,1504
47310,2202
47320,1423
47330,2164
47340,1429
47350,1853
47360,1276
47370,1918
47380,1207
47390,1857
47400,1259
47410,1805
47420,1373
47430,1781
47440,1415
47450,1739
47460,1497
47470,1725
47480,1522
47490,1765
47500,1809
47510,3267
47520,2044
47530,1137
47540,1642
47550,1801
47560,1621
47570,1718
47580,1710
47590,1712
47600,1814
47610,1766
47620,1942
47630,1808
47640,1978
47650,1886
47660,2108
47670,1831
47680,2224
47690,1952
47700,2314
47710,1975
47720,2359
47730,1934
47740,2335
47750,1755
47760,2149
47770,1589
47780,2014
47790,1456
47800,2022
47810,1379
47820,2065
47830,1408
47840,2110
47850,1378
47860,2203
47870,1392
47880,2249
47890,1409
47900,2252
47910,1424
47920,2249
47930,1386
47940,2356
47950,1360
47960,2430
47970,1431
47980,2553
47990,1416
48000,2558
48010,1310
48020,1415
48030,1431
48040,1449
48050,1461
48060,1479
48070,1478
48080,3187
48090,1930
48100,3292
48110,1904
48120,3329
48130,1753
48140,3226
48150,1648
48160,3172
48170,1858
48180,4095
48190,2656
48200,2427
48210,1168
48220,2966
48230,1116
48240,2788
48250,1083
48260,2834
48270,1017
48280,2803
48290,976
48300,2803
48310,987
48320,2899
48330,1031
48340,2977
48350,1088
48360,3029
48370,1099
48380,3070
48390,1088
48400,3102
48410,971
48420,2864
48430,794
48440,2767
48450,536
48460,2705
48470,542
48480,2723
48490,545
48500,2736
48510,575
48520,2746
48530,537
48540,2845
48550,585
48560,2864
48570,544
48580,2903
48590,569
48600,2903
48610,545
48620,2998
48630,535
48640,3139
48650,712
48660,3104
48670,693
48680,3123
48690,531
48700,2979
48710,453
48720,3024
48730,509
48740,3071
48750,498
48760,3111
48770,560
48780,3153
48790,566
48800,3203
48810,656
48820,3152
48830,726
48840,3489
48850,1881
48860,4095
48870,151
48880,3011
48890,656
48900,3200
48910,527
48920,3091
48930,628
48940,3152
48950,492
48960,3286
48970,714
48980,3422
48990,774
49000,3611
49010,809
49020,2738
49030,2778
49040,2802
49050,2838
49060,2882
49070,2918
49080,4095
49090,1747
49100,4095
49110,1429
49120,4095
49130,1110
49140,4005
49150,1054
49160,3783
49170,882
49180,3656
49190,751
49200,3490
49210,739
49220,3407
49230,592
49240,3367
49250,603
49260,3261
49270,607
49280,3228
49290,537
49300,3253
49310,540
49320,3120
49330,563
49340,3067
49350,533
49360,3219
49370,606
49380,3131
49390,560
49400,3120
49410,440
49420,2951
49430,443
49440,2947
49450,470
49460,2953
49470,420
49480,2928
49490,507
49500,2938
49510,570
49520,3004
49530,563
49540,2993
49550,642
49560,3294
49570,1875
49580,4050
49590,337
49600,2841
49610,832
49620,3065
49630,755
49640,3028
49650,843
49660,3123
49670,912
49680,3086
49690,975
49700,3166
49710,1022
49720,3171
49730,1066
49740,3280
49750,1197
49760,3312
49770,1307
49780,3387
49790,1270
49800,3252
49810,1150
49820,2986
49830,976
49840,2800
49850,898
49860,2819
49870,911
49880,2727
49890,961
49900,2791
49910,987
49920,2849
49930,1008
49940,2795
49950,1072
49960,2768
49970,1106
49980,2751
49990,1168
50000,2737
50010,1180
50020,3873
50030,3939
50040,3952
50050,4031
50060,4078
50070,4095
50080,3434
50090,2057
50100,3371
50110,2064
50120,3262
50130,1967
50140,3130
50150,1820
50160,3026
50170,1743
50180,2907
50190,1680
50200,2815
50210,1737
50220,2707
50230,1605
50240,2618
50250,1456
50260,2383
50270,1420
50280,2288
50290,1385
50300,2249
50310,1343
50320,2198
50330,1454
50340,2223
50350,1401
50360,1437
50370,1471
50380,1496
50390,1529
50400,2003
50410,1773
50420,3527
50430,2274
50440,1409
50450,1275
50460,1967
50470,1478
50480,1920
50490,1477
50500,1831
50510,1471
50520,1950
50530,1567
50540,1905
50550,1686
50560,1964
50570,1784
50580,2001
50590,1936
50600,2070
50610,2000
50620,2096
50630,2081
50640,2070
50650,2031
50660,1926
50670,1969
50680,1690
50690,1920
50700,1573
50710,1776
50720,1535
50730,1923
50740,1535
50750,1898
50760,1517
50770,2041
50780,1599
50790,2061
50800,1535
50810,2199
50820,1600
50830,2147
50840,1570
50850,2189
50860,1525
50870,2197
50880,1463
50890,2240
50900,1485
50910,2172
50920,1469
50930,2305
50940,1456
50950,2496
50960,1460
50970,2559
50980,1407
50990,2261
51000,1232
51010,2357
51020,4095
51030,4095
51040,4095
51050,4095
51060,4095
51070,4016
51080,2014
51090,3204
51100,1911
51110,3262
51120,1856
51130,3279
51140,2416
51150,4095
51160,2522
51170,2287
51180,1369
51190,3005
51200,1280
51210,2802
51220,1205
51230,2762
51240,1158
51250,2834
51260,1073
51270,2854
51280,1075
51290,2797
51300,1088
51310,2842
51320,1045
51330,2946
51340,1095
51350,3003
51360,1022
51370,2865
51380,866
51390,2731
51400,671
51410,2512
51420,560
51430,2522
51440,418
51450,2555
51460,390
51470,2525
51480,410
51490,2587
51500,464
51510,2668
51520,507
51530,2729
51540,524
51550,2782
51560,537
51570,2799
51580,511
51590,2857
51600,520
51610,2836
51620,469
51630,2886
51640,439
51650,2906
51660,458
51670,2957
51680,502
51690,2999
51700,496
51710,2975
51720,492
51730,2949
51740,511
51750,3061
51760,453
51770,3063
51780,464
51790,3007
51800,511
51810,3158
51820,626
51830,3313
51840,646
51850,3261
51860,482
51870,3175
51880,505
51890,3153
51900,483
51910,3242
51920,588
51930,3321
51940,537
51950,3255
51960,595
51970,3369
51980,569
51990,3359
52000,1032
52010,4095
52020,2871
52030,2846
52040,2818
52050,2778
52060,2746
52070,2709
52080,1329
52090,4095
52100,1379
52110,4095
52120,1302
52130,4095
52140,1209
52150,4095
52160,1119
52170,4095
52180,1091
52190,4095
52200,1042
52210,3919
52220,960
52230,3808
52240,805
52250,3381
52260,592
52270,3152
52280,345
52290,2921
52300,272
52310,2885
52320,235
52330,2865
52340,225
52350,2864
52360,263
52370,2881
52380,314
52390,2832
52400,343
52410,2882
52420,306
52430,2916
52440,338
52450,2880
52460,352
52470,2875
52480,384
52490,2896
52500,382
52510,2861
52520,465
52530,2787
52540,576
52550,2787
52560,533
52570,2802
52580,563
52590,2790
52600,624
52610,2790
52620,599
52630,2805
52640,672
52650,2803
52660,726
52670,2993
52680,838
52690,2962
52700,870
52710,2803
52720,733
52730,2800
52740,750
52750,2754
52760,771
52770,2795
52780,882
52790,2754
52800,895
52810,2775
52820,973
52830,2739
52840,1049
52850,2951
52860,2212
52870,3983
52880,711
52890,2611
52900,1126
52910,2830
52920,1032
52930,2864
52940,1185
52950,2903
52960,1273
52970,2964
52980,1334
52990,3019
53000,1435
53010,3039
53020,2363
53030,2346
53040,2324
53050,2320
53060,2288
53070,2272
53080,2544
53090,3873
53100,2459
53110,3597
53120,2183
53130,3206
53140,1833
53150,3023
53160,1717
53170,2816
53180,1577
53190,2736
53200,1562
53210,2535
53220,1459
53230,2506
53240,1413
53250,2399
53260,1350
53270,2316
53280,1357
53290,2212
53300,1345
53310,2219
53320,1309
53330,2151
53340,1284
53350,2094
53360,1274
53370,2059
53380,1357
53390,2063
53400,1375
53410,2039
53420,1377
53430,2023
53440,1403
53450,2017
53460,1468
53470,2134
53480,1606
53490,2080
53500,1616
53510,1927
53520,1529
53530,1842
53540,1563
53550,1808
53560,1601
53570,1827
53580,1697
53590,1815
53600,1712
53610,1807
53620,1759
53630,1818
53640,1750
53650,1830
53660,2542
53670,3442
53680,1846
53690,1232
53700,2032
53710,1716
53720,1937
53730,1659
53740,1951
53750,1663
53760,2077
53770,1712
53780,2124
53790,1726
53800,2208
53810,1755
53820,2305
53830,1776
53840,2401
53850,1894
53860,2559
53870,1840
53880,2559
53890,1856
53900,2481
53910,1597
53920,2302
53930,1407
53940,2176
53950,1270
53960,2129
53970,1232
53980,2171
53990,1169
54000,2211
54010,1207
54020,1280
54030,1295
54040,1309
54050,1325
54060,1338
54070,1328
54080,3107
54090,1935
54100,3110
54110,1830
54120,3071
54130,1919
54140,1896
54150,1857
54160,1778
54170,1322
54180,2791
54190,1265
54200,2730
54210,1133
54220,2755
54230,1097
54240,2653
54250,1066
54260,2736
54270,1116
54280,2751
54290,1063
54300,2694
54310,833
54320,2591
54330,767
54340,2624
54350,780
54360,2653
54370,763
54380,2741
54390,752
54400,2743
54410,798
54420,2806
54430,818
54440,2833
54450,912
54460,4095
54470,2384
54480,2452
54490,496
54500,3004
54510,704
54520,2961
54530,778
54540,2960
54550,800
54560,3031
54570,783
54580,3099
54590,817
54600,3139
54610,836
54620,3251
54630,896
54640,3346
54650,942
54660,3426
54670,1008
54680,3494
54690,934
54700,3379
54710,789
54720,3186
54730,579
54740,3027
54750,550
54760,2989
54770,457
54780,2994
54790,469
54800,3102
54810,496
54820,3111
54830,535
54840,3149
54850,469
54860,3152
54870,575
54880,3179
54890,561
54900,3229
54910,528
54920,3233
54930,497
54940,3237
54950,578
54960,3245
54970,534
54980,3230
54990,537
55000,3271
55010,592
55020,2348
55030,2388
55040,2428
55050,2488
55060,2495
55070,2515
55080,4095
55090,1347
55100,4095
55110,1163
55120,4095
55130,1151
55140,4095
55150,1014
55160,3975
55170,951
55180,3711
55190,849
55200,3693
55210,803
55220,3567
55230,715
55240,4090
55250,2223
55260,3924
55270,144
55280,3343
55290,688
55300,3330
55310,579
55320,3290
55330,599
55340,3254
55350,651
55360,3204
55370,669
55380,3313
55390,688
55400,3303
55410,730
55420,3374
55430,759
55440,3478
55450,861
55460,3485
55470,886
55480,3376
55490,765
55500,3121
55510,636
55520,2977
55530,491
55540,2864
55550,434
55560,2865
55570,511
55580,2875
55590,567
55600,2864
55610,565
55620,2913
55630,599
55640,2896
55650,646
55660,2894
55670,660
55680,2864
55690,752
55700,2885
55710,729
55720,2864
55730,813
55740,2848
55750,842
55760,2832
55770,816
55780,2805
55790,897
55800,2907
55810,990
55820,2894
55830,1041
55840,2800
55850,880
55860,2722
55870,900
55880,2724
55890,893
55900,2722
55910,969
55920,2714
55930,1008
55940,2688
55950,1039
55960,2691
55970,1090
55980,2652
55990,1247
56000,3799
56010,2547
56020,3822
56030,3882
56040,3935
56050,3984
56060,4031
56070,4077
56080,3408
56090,1981
56100,3371
56110,1989
56120,3301
56130,1951
56140,3190
56150,2022
56160,3107
56170,1903
56180,3088
56190,1948
56200,3009
56210,1862
56220,2930
56230,1842
56240,2710
56250,1676
56260,2511
56270,1414
56280,2223
56290,1283
56300,2102
56310,1225
56320,1985
56330,1220
56340,1929
56350,1263
56360,1850
56370,1264
56380,1799
56390,1266
56400,1751
56410,1244
56420,1771
56430,1199
56440,1766
56450,1296
56460,1701
56470,1295
56480,1741
56490,1462
56500,1718
56510,1461
56520,1717
56530,1535
56540,1744
56550,1688
56560,1873
56570,1773
56580,1829
56590,1652
56600,1683
56610,1645
56620,1612
56630,1760
56640,1593
56650,1795
56660,1643
56670,1835
56680,1623
56690,1875
56700,1651
56710,1934
56720,1610
56730,1945
56740,1653
56750,2613
56760,3226
56770,2246
56780,1061
56790,2208
56800,1600
56810,2144
56820,1531
56830,2251
56840,1554
56850,2274
56860,1571
56870,2320
56880,1519
56890,2433
56900,1563
56910,2514
56920,1593
56930,2597
56940,1613
56950,2739
56960,1795
56970,2689
56980,1646
56990,2796
57000,1495
57010,2603
57020,4061
57030,4022
57040,3999
57050,3970
57060,3925
57070,3897
57080,1841
57090,3296
57100,1851
57110,3333
57120,1711
57130,3157
57140,1622
57150,3154
57160,1456
57170,3027
57180,1353
57190,2981
57200,1243
57210,2864
57220,1130
57230,2860
57240,1023
57250,2815
57260,965
57270,2783
57280,885
57290,2667
57300,899
57310,2886
57320,902
57330,2813
57340,865
57350,2720
57360,653
57370,2695
57380,626
57390,2688
57400,607
57410,2720
57420,614
57430,2750
57440,590
57450,2800
57460,667
57470,2833
57480,566
57490,2827
57500,777
57510,4028
57520,2123
57530,2450
57540,237
57550,3031
57560,507
57570,2855
57580,561
57590,2982
57600,590
57610,3061
57620,639
57630,3105
57640,624
57650,3155
57660,649
57670,3280
57680,704
57690,3379
57700,838
57710,3409
57720,857
57730,3472
57740,807
57750,3396
57760,651
57770,3205
57780,439
57790,3038
57800,368
57810,2943
57820,256
57830,3035
57840,352
57850,3000
57860,415
57870,3086
57880,442
57890,3098
57900,397
57910,3154
57920,431
57930,3145
57940,465
57950,1887
57960,1943
57970,1985
57980,2019
57990,3175
58000,453
58010,3121
58020,2549
58030,2509
58040,2477
58050,2434
58060,2393
58070,2362
58080,1195
58090,4095
58100,1152
58110,4094
58120,1119
58130,4058
58140,1021
58150,3781
58160,944
58170,3702
58180,823
58190,3518
58200,795
58210,3473
58220,729
58230,3969
58240,2255
58250,3661
58260,44
58270,3227
58280,595
58290,3120
58300,506
58310,3136
58320,579
58330,3089
58340,624
58350,3116
58360,640
58370,3153
58380,691
58390,3195
58400,819
58410,3248
58420,874
58430,3339
58440,886
58450,3362
58460,912
58470,3271
58480,843
58490,3037
58500,713
58510,2843
58520,577
58530,2800
58540,561
58550,2739
58560,535
58570,2761
58580,620
58590,2754
58600,638
58610,2781
58620,713
58630,2750
58640,718
58650,2767
58660,747
58670,2726
58680,823
58690,2729
58700,816
58710,2717
58720,873
58730,2688
58740,924
58750,2835
58760,1078
58770,2831
58780,1127
58790,2723
58800,969
58810,2559
58820,1005
58830,2502
58840,1074
58850,2428
58860,1079
58870,2515
58880,1072
58890,2485
58900,1111
58910,2548
58920,1011
58930,2502
58940,1104
58950,2960
58960,2675
58970,2841
58980,791
58990,2535
59000,1399
59010,2515
59020,1649
59030,1641
59040,1604
59050,1602
59060,1598
59070,1593
59080,2240
59090,3291
59100,2346
59110,3259
59120,2384
59130,3264
59140,2400
59150,3172
59160,2346
59170,3056
59180,2205
59190,2864
59200,2013
59210,2551
59220,1746
59230,2235
59240,1607
59250,2146
59260,1518
59270,2071
59280,1475
59290,1965
59300,1504
59310,1915
59320,1535
59330,1872
59340,1501
59350,1847
59360,1571
59370,1767
59380,1556
59390,1709
59400,1563
59410,1722
59420,1574
59430,1680
59440,1649
59450,1657
59460,1846
59470,1735
59480,1831
59490,1636
59500,1686
59510,1530
59520,1725
59530,1444
59540,1808
59550,1456
59560,1795
59570,1509
59580,1887
59590,1437
59600,1904
59610,1456
59620,1954
59630,1403
59640,2022
59650,1472
59660,2679
59670,3107
59680,2072
59690,909
59700,2279
59710,1440
59720,2210
59730,1365
59740,2315
59750,1381
59760,2367
59770,1468
59780,2382
59790,1487
59800,2512
59810,1471
59820,2580
59830,1581
59840,2694
59850,1597
59860,2828
59870,1642
59880,2895
59890,1579
59900,2831
59910,1455
59920,2662
59930,1257
59940,2526
59950,1095
59960,2503
59970,1038
59980,2545
59990,1015
