timestamp,value
0,4095
10,4095
20,4095
30,4095
40,4095
50,4095
60,4095
70,4095
80,4095
90,4095
100,4095
110,4095
120,4095
130,4095
140,3898
150,4095
160,2388
170,4095
180,1935
190,4095
200,1502
210,4095
220,1137
230,4095
240,976
250,4095
260,1023
270,4095
280,947
290,4089
300,867
310,3841
320,673
330,3481
340,432
350,3129
360,188
370,2950
380,48
390,2800
400,0
410,2791
420,49
430,2783
440,80
450,2807
460,139
470,2762
480,145
490,2839
500,171
510,2768
520,351
530,3053
540,455
550,2992
560,572
570,3134
580,556
590,3041
600,529
610,2803
620,387
630,2675
640,399
650,2639
660,343
670,2555
680,415
690,2650
700,426
710,2595
720,511
730,2614
740,527
750,2559
760,810
770,4095
780,1398
790,1903
800,511
810,2537
820,553
830,2405
840,594
850,2347
860,633
870,2311
880,645
890,2319
900,738
910,2383
920,804
930,2383
940,909
950,2414
960,1036
970,2435
980,1077
990,4095
1000,4095
1010,4095
1020,4095
1030,4095
1040,4095
1050,3536
1060,2608
1070,3579
1080,2625
1090,3355
1100,2386
1110,3059
1120,2144
1130,2798
1140,1891
1150,2481
1160,1638
1170,2220
1180,1435
1190,1974
1200,1264
1210,1761
1220,1146
1230,1638
1240,1206
1250,1535
1260,1087
1270,1362
1280,925
1290,1086
1300,819
1310,985
1320,806
1330,919
1340,835
1350,877
1360,907
1370,861
1380,946
1390,858
1400,982
1410,848
1420,1040
1430,975
1440,2100
1450,2237
1460,784
1470,603
1480,1350
1490,822
1500,1286
1510,811
1520,1418
1530,848
1540,1524
1550,887
1560,1633
1570,938
1580,1739
1590,1005
1600,1891
1610,1107
1620,2028
1630,1155
1640,2171
1650,1191
1660,2243
1670,1158
1680,2206
1690,994
1700,2128
1710,860
1720,2073
1730,777
1740,2074
1750,773
1760,2130
1770,783
1780,2252
1790,794
1800,2320
1810,790
1820,2385
1830,791
1840,2448
1850,842
1860,2522
1870,817
1880,2559
1890,827
1900,2734
1910,978
1920,2775
1930,1005
1940,2815
1950,851
1960,2784
1970,832
1980,2850
1990,4095
2000,4095
2010,4095
2020,4095
2030,4095
2040,4095
2050,3005
2060,4095
2070,3200
2080,4095
2090,2944
2100,4095
2110,4095
2120,4095
2130,1984
2140,4095
2150,1713
2160,4095
2170,1297
2180,3783
2190,1001
2200,3559
2210,864
2220,3378
2230,720
2240,3328
2250,611
2260,3200
2270,510
2280,3163
2290,467
2300,3169
2310,422
2320,3130
2330,348
2340,3006
2350,165
2360,2835
2370,0
2380,2709
2390,0
2400,2621
2410,0
2420,2621
2430,0
2440,2663
2450,0
2460,2799
2470,0
2480,2837
2490,0
2500,2861
2510,0
2520,2883
2530,0
2540,2885
2550,0
2560,2879
2570,19
2580,2955
2590,39
2600,2989
2610,0
2620,2929
2630,0
2640,2893
2650,0
2660,2885
2670,0
2680,2912
2690,0
2700,2859
2710,0
2720,2859
2730,0
2740,2839
2750,0
2760,2928
2770,0
2780,4095
2790,807
2800,2177
2810,0
2820,2787
2830,0
2840,2672
2850,0
2860,2624
2870,0
2880,2695
2890,0
2900,2594
2910,0
2920,2692
2930,0
2940,2839
2950,0
2960,2983
2970,0
2980,3071
2990,1884
3000,1833
3010,1809
3020,1761
3030,1726
3040,1693
3050,1017
3060,4095
3070,1115
3080,4095
3090,802
3100,4095
3110,719
3120,3846
3130,430
3140,3664
3150,114
3160,3355
3170,0
3180,3216
3190,0
3200,3178
3210,0
3220,3155
3230,0
3240,3065
3250,0
3260,3051
3270,0
3280,3066
3290,0
3300,3022
3310,195
3320,3967
3330,645
3340,4052
3350,805
3360,4095
3370,1662
3380,4095
3390,1799
3400,4095
3410,1882
3420,4095
3430,1936
3440,4095
3450,2466
3460,4095
3470,4095
3480,4095
3490,2929
3500,4095
3510,4095
3520,4095
3530,4095
3540,4095
3550,4095
3560,4095
3570,4095
3580,4095
3590,4095
3600,4095
3610,4095
3620,4095
3630,4095
3640,4095
3650,4095
3660,4095
3670,4095
3680,4095
3690,4095
3700,4095
3710,4095
3720,4095
3730,4095
3740,4095
3750,4095
3760,4095
3770,4095
3780,4095
3790,4095
3800,4095
3810,4095
3820,4095
3830,4095
3840,4095
3850,4095
3860,4095
3870,4095
3880,4095
3890,4095
3900,4095
3910,4095
3920,4095
3930,4095
3940,4095
3950,4095
3960,4095
3970,4095
3980,4095
3990,4095
4000,4095
4010,4095
4020,4095
4030,4095
4040,4095
4050,4095
4060,4095
4070,4095
4080,4095
4090,4095
4100,4095
4110,4095
4120,4095
4130,4095
4140,4095
4150,4095
4160,4095
4170,4095
4180,4095
4190,3418
4200,2517
4210,3219
4220,2502
4230,2843
4240,2245
4250,2643
4260,2038
4270,2503
4280,1786
4290,2438
4300,1580
4310,2345
4320,1535
4330,2195
4340,1426
4350,2246
4360,1369
4370,2285
4380,1203
4390,2419
4400,2374
4410,2338
4420,2305
4430,2265
4440,479
4450,1535
4460,256
4470,1397
4480,70
4490,1339
4500,0
4510,1235
4520,31
4530,1181
4540,340
4550,537
4560,493
4570,810
4580,318
4590,813
4600,346
4610,705
4620,176
4630,749
4640,223
4650,753
4660,368
4670,777
4680,320
4690,772
4700,124
4710,747
4720,214
4730,682
4740,231
4750,873
4760,201
4770,816
4780,371
4790,1023
4800,295
4810,1169
4820,344
4830,1237
4840,419
4850,2131
4860,1921
4870,1014
4880,225
4890,1439
4900,432
4910,1633
4920,579
4930,1469
4940,1165
4950,1614
4960,765
4970,1850
4980,801
4990,4095
5000,4095
5010,4095
5020,4095
5030,4095
5040,4095
5050,4095
5060,4095
5070,4095
5080,4095
5090,4095
5100,3097
5110,3520
5120,2327
5130,2914
5140,1828
5150,2691
5160,1573
5170,2373
5180,1296
5190,2163
5200,1125
5210,2018
5220,894
5230,1937
5240,825
5250,1747
5260,699
5270,1747
5280,723
5290,1729
5300,559
5310,1749
5320,822
5330,1890
5340,662
5350,1890
5360,656
5370,1687
5380,495
5390,1680
5400,605
5410,1826
5420,627
5430,1888
5440,656
5450,1883
5460,708
5470,2017
5480,818
5490,2065
5500,825
5510,2142
5520,2029
5530,3281
5540,286
5550,2002
5560,995
5570,2147
5580,879
5590,2346
5600,398
5610,3197
5620,110
5630,3451
5640,112
5650,3443
5660,173
5670,3477
5680,225
5690,3605
5700,346
5710,3719
5720,932
5730,2588
5740,1390
5750,2557
5760,1216
5770,2358
5780,1058
5790,2251
5800,976
5810,2208
5820,1008
5830,2254
5840,1041
5850,2275
5860,1059
5870,2282
5880,1005
5890,2317
5900,1032
5910,2347
5920,1086
5930,2425
5940,1085
5950,2350
5960,1254
5970,2494
5980,1238
5990,4095
6000,4095
6010,4095
6020,4095
6030,4095
6040,4095
6050,4095
6060,4095
6070,4095
6080,4095
6090,4095
6100,3065
6110,3830
6120,2389
6130,3299
6140,1906
6150,2879
6160,1840
6170,4095
6180,2109
6190,1789
6200,1063
6210,2190
6220,934
6230,1951
6240,834
6250,1837
6260,749
6270,1783
6280,749
6290,1766
6300,688
6310,1788
6320,758
6330,1782
6340,822
6350,1824
6360,848
6370,1847
6380,880
6390,1830
6400,899
6410,1679
6420,794
6430,1602
6440,666
6450,1523
6460,682
6470,1502
6480,720
6490,1619
6500,816
6510,1712
6520,913
6530,1700
6540,933
6550,1727
6560,1034
6570,1739
6580,1059
6590,1806
6600,1196
6610,1830
6620,1175
6630,1859
6640,1086
6650,1684
6660,1135
6670,1751
6680,1104
6690,1731
6700,1165
6710,1744
6720,1232
6730,1808
6740,1294
6750,1861
6760,1334
6770,1859
6780,1348
6790,2179
6800,2701
6810,2878
6820,895
6830,1781
6840,1556
6850,1872
6860,1519
6870,1898
6880,1535
6890,1894
6900,1597
6910,1997
6920,1712
6930,2014
6940,1743
6950,1957
6960,1883
6970,2087
6980,1889
6990,4095
7000,4095
7010,4095
7020,4095
7030,4095
7040,4095
7050,4095
7060,4095
7070,4095
7080,4095
7090,4095
7100,3440
7110,3049
7120,2890
7130,2687
7140,2559
7150,2410
7160,2285
7170,2205
7180,2091
7190,1919
7200,1936
7210,1854
7220,1872
7230,1729
7240,1717
7250,1398
7260,1445
7270,1165
7280,1267
7290,1061
7300,1248
7310,1014
7320,1227
7330,948
7340,1230
7350,912
7360,1216
7370,983
7380,1294
7390,1000
7400,1307
7410,1384
7420,2816
7430,1747
7440,870
7450,957
7460,1584
7470,1054
7480,1563
7490,1159
7500,1584
7510,1158
7520,1796
7530,1232
7540,1791
7550,1328
7560,1889
7570,1433
7580,2000
7590,1473
7600,2150
7610,1535
7620,2215
7630,1591
7640,2238
7650,1554
7660,2105
7670,1392
7680,1974
7690,1299
7700,1970
7710,1270
7720,2003
7730,1283
7740,2031
7750,1355
7760,2083
7770,1380
7780,2160
7790,1404
7800,2178
7810,1413
7820,2303
7830,1590
7840,2343
7850,1493
7860,2293
7870,1360
7880,2208
7890,1265
7900,2081
7910,1202
7920,2086
7930,1142
7940,2043
7950,1124
7960,2076
7970,1088
7980,2034
7990,4095
8000,4095
8010,4095
8020,4095
8030,4095
8040,4095
8050,4095
8060,4095
8070,4095
8080,4095
8090,3895
8100,3968
8110,2462
8120,3372
8130,2063
8140,2885
8150,1678
8160,2531
8170,1371
8180,2213
8190,982
8200,1984
8210,752
8220,1805
8230,588
8240,1555
8250,335
8260,1378
8270,101
8280,1008
8290,0
8300,752
8310,0
8320,614
8330,0
8340,587
8350,0
8360,608
8370,0
8380,737
8390,0
8400,755
8410,0
8420,912
8430,0
8440,1125
8450,0
8460,1136
8470,0
8480,1155
8490,0
8500,1152
8510,0
8520,1202
8530,41
8540,1335
8550,167
8560,1571
8570,368
8580,1708
8590,599
8600,1891
8610,753
8620,1991
8630,1258
8640,1221
8650,1225
8660,1217
8670,1202
8680,1203
8690,1199
8700,1190
8710,1119
8720,2388
8730,1229
8740,2453
8750,1253
8760,2559
8770,1457
8780,2661
8790,1535
8800,2837
8810,1630
8820,2928
8830,1743
8840,3026
8850,1856
8860,3111
8870,1871
8880,3003
8890,1777
8900,2809
8910,1738
8920,2782
8930,1490
8940,2704
8950,1535
8960,2736
8970,1579
8980,2775
8990,4095
9000,4095
9010,4095
9020,4095
9030,4095
9040,4095
9050,4095
9060,4095
9070,4095
9080,4095
9090,4095
9100,4095
9110,4095
9120,4095
9130,3200
9140,3579
9150,2358
9160,3152
9170,1819
9180,2709
9190,1513
9200,2405
9210,1255
9220,2114
9230,1145
9240,1998
9250,944
9260,1855
9270,834
9280,1681
9290,784
9300,1715
9310,816
9320,2622
9330,1981
9340,1168
9350,461
9360,1712
9370,639
9380,1531
9390,716
9400,1596
9410,756
9420,1599
9430,821
9440,1671
9450,862
9460,1797
9470,999
9480,1856
9490,1107
9500,1997
9510,1258
9520,1971
9530,1354
9540,2033
9550,1281
9560,1935
9570,1122
9580,1739
9590,984
9600,1663
9610,987
9620,1648
9630,1051
9640,1683
9650,1136
9660,1711
9670,1188
9680,1765
9690,1263
9700,1803
9710,1301
9720,1837
9730,1352
9740,1862
9750,1395
9760,1861
9770,1374
9780,1942
9790,1564
9800,1872
9810,1524
9820,2034
9830,1739
9840,2031
9850,1721
9860,1994
9870,1623
9880,1876
9890,1621
9900,1920
9910,1611
9920,1949
9930,1675
9940,1920
9950,1757
9960,1927
9970,1794
9980,1974
9990,4095
10000,4095
10010,4095
10020,4095
10030,4095
10040,4095
10050,4095
10060,4095
10070,4095
10080,4095
10090,4095
10100,4095
10110,4095
10120,4095
10130,3727
10140,2954
10150,2959
10160,2710
10170,2618
10180,2398
10190,2421
10200,2179
10210,2222
10220,2005
10230,2086
10240,1819
10250,1904
10260,1583
10270,1658
10280,1350
10290,1377
10300,1101
10310,1259
10320,914
10330,1232
10340,848
10350,1189
10360,862
10370,1287
10380,881
10390,1271
10400,906
10410,1259
10420,866
10430,1301
10440,848
10450,1326
10460,818
10470,1358
10480,827
10490,1392
10500,930
10510,1455
10520,1063
10530,1573
10540,1038
10550,1569
10560,962
10570,1534
10580,889
10590,1558
10600,936
10610,1593
10620,979
10630,1680
10640,1040
10650,1744
10660,1097
10670,1831
10680,1098
10690,1919
10700,1136
10710,2158
10720,2487
10730,2864
10740,765
10750,1984
10760,1328
10770,2038
10780,1263
10790,2102
10800,1355
10810,2192
10820,1383
10830,2311
10840,1435
10850,2328
10860,1490
10870,2429
10880,1535
10890,2529
10900,1648
10910,2604
10920,1715
10930,2669
10940,1719
10950,2583
10960,1553
10970,2482
10980,1423
10990,4095
11000,4095
11010,4095
11020,4095
11030,4095
11040,4095
11050,4095
11060,4095
11070,4095
11080,4095
11090,4095
11100,4095
11110,4095
11120,3769
11130,3988
11140,2426
11150,3414
11160,2123
11170,2946
11180,1691
11190,2643
11200,1535
11210,2622
11220,1294
11230,2333
11240,1038
11250,2055
11260,833
11270,1919
11280,711
11290,1889
11300,638
11310,1795
11320,594
11330,1793
11340,578
11350,1767
11360,539
11370,1778
11380,534
11390,1885
11400,1488
11410,3168
11420,176
11430,1576
11440,720
11450,1826
11460,640
11470,1863
11480,663
11490,1902
11500,687
11510,1995
11520,752
11530,2053
11540,882
11550,2159
11560,939
11570,2253
11580,1057
11590,2329
11600,1165
11610,2405
11620,1146
11630,2352
11640,1065
11650,2206
11660,944
11670,2077
11680,817
11690,2046
11700,797
11710,2036
11720,845
11730,2101
11740,849
11750,2181
11760,946
11770,2183
11780,950
11790,2192
11800,1003
11810,2209
11820,992
11830,2220
11840,1040
11850,2234
11860,1011
11870,2256
11880,1113
11890,2287
11900,1124
11910,2346
11920,1322
11930,2399
11940,1322
11950,2465
11960,1199
11970,2352
11980,1226
11990,4095
12000,4095
12010,4095
12020,4095
12030,4095
12040,4095
12050,4095
12060,4095
12070,4095
12080,4095
12090,4095
12100,4095
12110,4095
12120,4095
12130,4095
12140,2271
12150,3237
12160,1995
12170,2857
12180,1650
12190,2559
12200,1395
12210,2289
12220,1278
12230,2197
12240,1146
12250,2111
12260,1040
12270,2029
12280,1014
12290,1965
12300,967
12310,2057
12320,962
12330,1919
12340,915
12350,1763
12360,752
12370,1575
12380,576
12390,1397
12400,542
12410,1441
12420,558
12430,1406
12440,573
12450,1424
12460,618
12470,1424
12480,657
12490,1463
12500,686
12510,1532
12520,767
12530,1495
12540,1680
12550,1697
12560,1738
12570,1744
12580,1754
12590,1634
12600,1044
12610,1709
12620,1098
12630,1904
12640,1333
12650,1873
12660,1305
12670,1869
12680,1203
12690,1799
12700,1253
12710,1872
12720,1360
12730,1851
12740,1393
12750,1929
12760,1461
12770,1941
12780,1535
12790,1946
12800,1589
12810,1968
12820,1841
12830,3435
12840,2527
12850,1481
12860,1681
12870,2143
12880,1696
12890,2079
12900,1797
12910,2121
12920,1840
12930,2097
12940,1875
12950,2147
12960,1940
12970,2181
12980,2000
12990,4095
13000,4095
13010,4095
13020,4095
13030,4095
13040,4095
13050,4095
13060,4095
13070,4095
13080,4095
13090,4095
13100,4095
13110,4095
13120,4014
13130,2850
13140,2886
13150,2630
13160,2466
13170,2266
13180,2160
13190,1945
13200,1943
13210,1727
13220,1749
13230,1515
13240,1573
13250,1354
13260,1443
13270,1183
13280,1267
13290,1008
13300,1175
13310,883
13320,1078
13330,735
13340,922
13350,595
13360,844
13370,528
13380,848
13390,477
13400,755
13410,395
13420,580
13430,240
13440,577
13450,238
13460,671
13470,247
13480,704
13490,325
13500,765
13510,343
13520,790
13530,378
13540,878
13550,341
13560,1349
13570,1974
13580,1211
13590,0
13600,1094
13610,563
13620,1082
13630,528
13640,1151
13650,613
13660,1277
13670,702
13680,1362
13690,815
13700,1523
13710,917
13720,1655
13730,989
13740,1751
13750,1134
13760,1949
13770,1235
13780,2039
13790,1278
13800,2112
13810,1236
13820,2085
13830,1182
13840,1934
13850,1123
13860,1954
13870,1153
13880,2018
13890,1234
13900,2167
13910,1255
13920,2225
13930,1331
13940,2259
13950,1409
13960,2331
13970,1413
13980,2416
13990,4095
14000,4095
14010,4095
14020,4095
14030,4095
14040,4095
14050,4095
14060,4095
14070,4095
14080,4095
14090,4095
14100,4095
14110,4095
14120,4095
14130,2494
14140,3438
14150,2096
14160,2947
14170,1690
14180,2662
14190,1424
14200,2441
14210,1235
14220,2237
14230,997
14240,2007
14250,1339
14260,3694
14270,899
14280,1355
14290,704
14300,1818
14310,588
14320,1744
14330,541
14340,1717
14350,603
14360,1743
14370,561
14380,1727
14390,613
14400,1830
14410,647
14420,1832
14430,752
14440,1952
14450,806
14460,2047
14470,775
14480,2071
14490,808
14500,1958
14510,661
14520,1849
14530,631
14540,1802
14550,637
14560,1888
14570,674
14580,1986
14590,751
14600,2046
14610,879
14620,2114
14630,883
14640,2178
14650,978
14660,2301
14670,1072
14680,2281
14690,1042
14700,2325
14710,1136
14720,2381
14730,1268
14740,2608
14750,1309
14760,2607
14770,1290
14780,2432
14790,1179
14800,2416
14810,1232
14820,2449
14830,1250
14840,2487
14850,1305
14860,2544
14870,1349
14880,2559
14890,1387
14900,2586
14910,1402
14920,2741
14930,2415
14940,4095
14950,1074
14960,2420
14970,1591
14980,2589
14990,4095
15000,4095
15010,4095
15020,4095
15030,4095
15040,4095
15050,4095
15060,4095
15070,4095
15080,4095
15090,4095
15100,4095
15110,4095
15120,4095
15130,3829
15140,3952
15150,2492
15160,3517
15170,2044
15180,2852
15190,1595
15200,2467
15210,1226
15220,2194
15230,1072
15240,2035
15250,939
15260,1936
15270,877
15280,1856
15290,813
15300,1829
15310,783
15320,1759
15330,756
15340,1728
15350,779
15360,1707
15370,711
15380,1670
15390,793
15400,1766
15410,916
15420,1709
15430,942
15440,1729
15450,784
15460,1655
15470,758
15480,1635
15490,785
15500,1664
15510,855
15520,1645
15530,887
15540,1741
15550,968
15560,1725
15570,987
15580,1756
15590,1194
15600,2871
15610,2256
15620,1287
15630,960
15640,1943
15650,1157
15660,1776
15670,1216
15680,1870
15690,1277
15700,1913
15710,1335
15720,2000
15730,1456
15740,2002
15750,1558
15760,2085
15770,1680
15780,2176
15790,1744
15800,2317
15810,1825
15820,2261
15830,1791
15840,2147
15850,1667
15860,2016
15870,1558
15880,1888
15890,1530
15900,1869
15910,1573
15920,1877
15930,1635
15940,1934
15950,1680
15960,1955
15970,1719
15980,1968
15990,4095
16000,4095
16010,4095
16020,4095
16030,4095
16040,4095
16050,4095
16060,4095
16070,4095
16080,4095
16090,4095
16100,4095
16110,4095
16120,3856
16130,3083
16140,2778
16150,2668
16160,2477
16170,2304
16180,2112
16190,2095
16200,1917
16210,1904
16220,1753
16230,1748
16240,1581
16250,1831
16260,2586
16270,2697
16280,912
16290,1326
16300,1407
16310,1447
16320,1245
16330,1999
16340,2000
16350,2003
16360,2013
16370,2023
16380,1265
16390,1552
16400,1357
16410,1639
16420,1358
16430,1736
16440,1408
16450,1807
16460,1456
16470,1874
16480,1424
16490,1868
16500,1389
16510,1717
16520,1207
16530,1613
16540,1104
16550,1564
16560,1116
16570,1699
16580,1152
16590,1711
16600,1181
16610,1775
16620,1210
16630,1797
16640,1238
16650,1889
16660,1273
16670,1939
16680,1287
16690,1967
16700,1333
16710,2118
16720,1397
16730,2128
16740,1360
16750,1968
16760,1279
16770,1961
16780,1267
16790,2031
16800,1264
16810,2019
16820,1298
16830,2091
16840,1296
16850,2128
16860,1407
16870,2193
16880,1360
16890,2243
16900,1761
16910,4048
16920,1962
16930,1727
16940,1394
16950,2451
16960,1434
16970,2343
16980,1458
16990,4095
17000,4095
17010,4095
17020,4095
17030,4095
17040,4095
17050,4095
17060,4095
17070,4095
17080,4095
17090,4095
17100,4095
17110,4095
17120,4095
17130,4095
17140,2473
17150,3437
17160,2017
17170,2885
17180,1605
17190,2495
17200,1334
17210,2302
17220,1095
17230,2151
17240,934
17250,2077
17260,881
17270,1969
17280,819
17290,1922
17300,690
17310,1839
17320,674
17330,1776
17340,608
17350,1835
17360,746
17370,1807
17380,666
17390,1791
17400,473
17410,1685
17420,468
17430,1646
17440,443
17450,1631
17460,432
17470,1722
17480,538
17490,1789
17500,609
17510,1856
17520,653
17530,1904
17540,727
17550,2642
17560,2246
17570,1818
17580,368
17590,2177
17600,823
17610,2039
17620,865
17630,2112
17640,955
17650,2186
17660,1009
17670,2263
17680,1104
17690,2325
17700,1183
17710,2467
17720,1259
17730,2541
17740,1295
17750,2592
17760,1381
17770,2595
17780,1323
17790,2512
17800,1199
17810,2367
17820,1073
17830,2349
17840,1074
17850,2265
17860,1053
17870,2320
17880,1075
17890,2367
17900,1182
17910,2365
17920,1273
17930,2491
17940,1257
17950,2447
17960,1266
17970,2484
17980,1296
17990,4095
18000,4095
18010,4095
18020,4095
18030,4095
18040,4095
18050,4095
18060,4095
18070,4095
18080,4095
18090,4095
18100,4095
18110,4095
18120,3102
18130,3622
18140,2299
18150,3264
18160,1958
18170,2958
18180,1711
18190,2661
18200,1456
18210,2559
18220,2256
18230,3947
18240,737
18250,1977
18260,1200
18270,1990
18280,941
18290,1967
18300,889
18310,1905
18320,902
18330,1875
18340,890
18350,1898
18360,887
18370,1817
18380,1033
18390,1893
18400,1021
18410,1911
18420,1056
18430,1850
18440,939
18450,1741
18460,660
18470,1445
18480,479
18490,1207
18500,336
18510,1121
18520,344
18530,1096
18540,324
18550,1051
18560,323
18570,1065
18580,301
18590,1182
18600,407
18610,1107
18620,443
18630,1114
18640,448
18650,1114
18660,540
18670,1147
18680,573
18690,1155
18700,591
18710,1207
18720,614
18730,1298
18740,737
18750,1317
18760,809
18770,1351
18780,855
18790,1425
18800,1072
18810,1516
18820,1137
18830,1501
18840,1108
18850,1441
18860,1085
18870,1424
18880,1152
18890,1450
18900,1153
18910,1527
18920,1215
18930,1597
18940,1311
18950,1623
18960,1397
18970,1642
18980,1445
18990,4095
19000,4095
19010,4095
19020,4095
19030,4095
19040,4095
19050,4095
19060,4095
19070,4095
19080,4095
19090,4095
19100,4095
19110,4095
19120,3312
19130,2981
19140,2843
19150,2665
19160,2473
19170,2373
19180,2306
19190,2159
19200,2109
19210,1931
19220,1884
19230,1669
19240,1648
19250,1424
19260,1417
19270,1134
19280,1169
19290,1073
19300,1123
19310,922
19320,1120
19330,895
19340,1185
19350,945
19360,1175
19370,939
19380,1275
19390,943
19400,1323
19410,1015
19420,1338
19430,1011
19440,1328
19450,989
19460,1435
19470,1011
19480,1434
19490,1076
19500,1507
19510,1047
19520,1535
19530,1049
19540,1622
19550,1134
19560,1600
19570,1095
19580,1631
19590,1110
19600,1805
19610,1347
19620,1892
19630,1345
19640,1889
19650,1254
19660,1875
19670,1249
19680,1904
19690,1295
19700,1995
19710,1275
19720,2032
19730,1370
19740,2001
19750,1407
19760,2129
19770,1417
19780,2112
19790,1419
19800,2700
19810,3203
19820,2470
19830,967
19840,2269
19850,1486
19860,2288
19870,1430
19880,2321
19890,1498
19900,2341
19910,1519
19920,2385
19930,1535
19940,2496
19950,1642
19960,2629
19970,1703
19980,2702
19990,4095
20000,4095
20010,4095
20020,4095
20030,4095
20040,4095
20050,4095
20060,4095
20070,4095
20080,4095
20090,4095
20100,3307
20110,3388
20120,3264
20130,3247
20140,3309
20150,2160
20160,3083
20170,1851
20180,2811
20190,1584
20200,2546
20210,1393
20220,2362
20230,1185
20240,2255
20250,1070
20260,2080
20270,912
20280,2059
20290,839
20300,1932
20310,783
20320,1891
20330,737
20340,1878
20350,677
20360,1872
20370,654
20380,1907
20390,861
20400,1968
20410,811
20420,1943
20430,672
20440,1834
20450,641
20460,1893
20470,694
20480,1967
20490,698
20500,1980
20510,736
20520,1984
20530,802
20540,2103
20550,866
20560,2073
20570,872
20580,2533
20590,2450
20600,2736
20610,411
20620,2353
20630,1037
20640,2251
20650,1044
20660,2269
20670,1111
20680,2352
20690,1152
20700,2398
20710,1179
20720,2517
20730,1281
20740,2551
20750,1360
20760,2635
20770,1439
20780,2752
20790,1522
20800,2755
20810,1515
20820,2697
20830,1360
20840,2509
20850,1251
20860,2385
20870,1199
20880,2352
20890,1126
20900,2354
20910,1156
20920,2357
20930,1194
20940,2384
20950,1249
20960,2386
20970,1299
20980,2465
20990,4095
21000,4095
21010,4095
21020,4095
21030,4095
21040,4095
21050,4095
21060,4095
21070,4095
21080,4095
21090,4095
21100,4095
21110,4095
21120,4095
21130,2519
21140,3472
21150,2119
21160,3024
21170,1781
21180,2751
21190,1653
21200,2526
21210,1429
21220,2305
21230,1088
21240,1986
21250,934
21260,1846
21270,777
21280,1747
21290,721
21300,1701
21310,662
21320,1583
21330,682
21340,1601
21350,668
21360,1568
21370,629
21380,1759
21390,1907
21400,2804
21410,176
21420,1472
21430,902
21440,1610
21450,784
21460,1625
21470,855
21480,1691
21490,940
21500,1754
21510,1034
21520,1812
21530,1153
21540,1901
21550,1235
21560,2043
21570,1384
21580,2114
21590,1473
21600,2141
21610,1478
21620,2096
21630,1449
21640,1936
21650,1285
21660,1858
21670,1205
21680,1752
21690,1221
21700,1803
21710,1270
21720,1821
21730,1344
21740,1837
21750,1427
21760,1859
21770,1479
21780,1920
21790,1535
21800,1910
21810,1586
21820,1935
21830,1583
21840,1905
21850,1649
21860,1916
21870,1646
21880,1931
21890,1626
21900,1953
21910,1647
21920,1936
21930,1732
21940,1970
21950,1738
21960,1966
21970,1827
21980,2096
21990,4095
22000,4095
22010,4095
22020,4095
22030,4095
22040,4095
22050,4095
22060,4095
22070,4095
22080,4095
22090,4095
22100,4095
22110,4095
22120,3740
22130,3195
22140,2819
22150,2762
22160,2599
22170,3382
22180,3935
22190,1937
22200,1602
22210,2112
22220,1787
22230,1840
22240,1569
22250,1778
22260,1486
22270,1696
22280,1399
22290,1675
22300,1375
22310,1693
22320,1422
22330,1691
22340,1404
22350,1723
22360,1430
22370,1835
22380,1440
22390,1792
22400,1421
22410,1760
22420,1214
22430,1657
22440,1093
22450,1506
22460,981
22470,1504
22480,992
22490,1534
22500,978
22510,1535
22520,1105
22530,1637
22540,1087
22550,1710
22560,1090
22570,1744
22580,1146
22590,1777
22600,1098
22610,1808
22620,1168
22630,1829
22640,1109
22650,1819
22660,1093
22670,1840
22680,1087
22690,1920
22700,1184
22710,2114
22720,1282
22730,2065
22740,1242
22750,1967
22760,1109
22770,1948
22780,1118
22790,2035
22800,1154
22810,2009
22820,1170
22830,2094
22840,1204
22850,2186
22860,1230
22870,2209
22880,1267
22890,2192
22900,1411
22910,3429
22920,2639
22930,1805
22940,1117
22950,2421
22960,1309
22970,2339
22980,1432
22990,4095
23000,4095
23010,4095
23020,4095
23030,4095
23040,4095
23050,4095
23060,4095
23070,4095
23080,4095
23090,4095
23100,4095
23110,4095
23120,4095
23130,4095
23140,2489
23150,3575
23160,2002
23170,2932
23180,1520
23190,2559
23200,1272
23210,2277
23220,1046
23230,2128
23240,878
23250,1979
23260,766
23270,1889
23280,657
23290,1853
23300,624
23310,1797
23320,593
23330,1775
23340,559
23350,1767
23360,470
23370,1744
23380,502
23390,1735
23400,529
23410,1776
23420,502
23430,1783
23440,545
23450,1903
23460,784
23470,1959
23480,745
23490,1899
23500,647
23510,1805
23520,601
23530,1866
23540,645
23550,1936
23560,688
23570,1952
23580,707
23590,2006
23600,766
23610,2073
23620,861
23630,2107
23640,928
23650,2842
23660,2597
23670,2156
23680,581
23690,2385
23700,1034
23710,2242
23720,1104
23730,2288
23740,1092
23750,2346
23760,1161
23770,2366
23780,1211
23790,2435
23800,1285
23810,2512
23820,1407
23830,2615
23840,1485
23850,2673
23860,1525
23870,1239
23880,1178
23890,1225
23900,1219
23910,1215
23920,1219
23930,2304
23940,1139
23950,2206
23960,1138
23970,2229
23980,1127
23990,4095
24000,4095
24010,4095
24020,4095
24030,4095
24040,4095
24050,4095
24060,4095
24070,4095
24080,4095
24090,4095
24100,4095
24110,4095
24120,3103
24130,3564
24140,2329
24150,3203
24160,2011
24170,2746
24180,1709
24190,2480
24200,1475
24210,2406
24220,1508
24230,2235
24240,1279
24250,2019
24260,999
24270,1771
24280,894
24290,1686
24300,870
24310,1606
24320,784
24330,1600
24340,784
24350,1569
24360,814
24370,1520
24380,845
24390,1523
24400,886
24410,2417
24420,2384
24430,1168
24440,619
24450,1705
24460,881
24470,1535
24480,969
24490,1562
24500,1009
24510,1615
24520,1088
24530,1665
24540,1154
24550,1745
24560,1261
24570,1775
24580,1408
24590,1845
24600,1445
24610,1942
24620,1527
24630,1931
24640,1522
24650,1817
24660,1447
24670,1719
24680,1286
24690,1557
24700,1245
24710,1520
24720,1246
24730,1527
24740,1324
24750,1600
24760,1403
24770,1695
24780,1485
24790,1697
24800,1566
24810,1693
24820,1615
24830,1709
24840,1616
24850,1719
24860,1647
24870,1755
24880,1711
24890,1728
24900,1771
24910,1774
24920,1762
24930,1771
24940,1836
24950,1786
24960,1987
24970,1993
24980,2014
24990,4095
25000,4095
25010,4095
25020,4095
25030,4095
25040,4095
25050,4095
25060,4095
25070,4095
25080,4095
25090,4095
25100,4095
25110,4095
25120,3739
25130,2838
25140,3054
25150,2608
25160,3792
25170,4018
25180,2143
25190,1623
25200,2318
25210,1659
25220,1980
25230,1472
25240,1898
25250,1328
25260,1773
25270,1289
25280,1758
25290,1191
25300,1753
25310,1235
25320,1808
25330,1213
25340,1846
25350,1328
25360,1924
25370,1298
25380,1921
25390,1285
25400,1900
25410,1109
25420,1683
25430,926
25440,1599
25450,834
25460,1600
25470,837
25480,1647
25490,881
25500,1655
25510,900
25520,1747
25530,845
25540,1771
25550,1003
25560,1840
25570,1001
25580,1897
25590,995
25600,1977
25610,1073
25620,1969
25630,1055
25640,2045
25650,1107
25660,2032
25670,1129
25680,2092
25690,1157
25700,2242
25710,1242
25720,2220
25730,1347
25740,2238
25750,1131
25760,2144
25770,1083
25780,2192
25790,1173
25800,2224
25810,1197
25820,2287
25830,1200
25840,2293
25850,1258
25860,2368
25870,1281
25880,2373
25890,1360
25900,3184
25910,2924
25920,2310
25930,986
25940,2591
25950,1367
25960,2513
25970,1410
25980,2601
25990,4095
26000,4095
26010,4095
26020,4095
26030,4095
26040,4095
26050,4095
26060,4095
26070,4095
26080,4095
26090,4095
26100,4095
26110,4095
26120,4095
26130,3343
26140,3907
26150,2309
26160,3324
26170,1818
26180,2789
26190,1437
26200,2550
26210,1218
26220,2378
26230,1039
26240,2215
26250,949
26260,2171
26270,849
26280,2101
26290,799
26300,2000
26310,741
26320,1901
26330,701
26340,1886
26350,592
26360,1883
26370,595
26380,1853
26390,646
26400,2000
26410,689
26420,1931
26430,607
26440,1795
26450,479
26460,1757
26470,529
26480,1744
26490,539
26500,1815
26510,550
26520,1795
26530,621
26540,1855
26550,643
26560,2000
26570,690
26580,1879
26590,983
26600,3248
26610,2060
26620,1577
26630,688
26640,2173
26650,941
26660,2096
26670,999
26680,2143
26690,1062
26700,2205
26710,1162
26720,2314
26730,1253
26740,2356
26750,1274
26760,2443
26770,1387
26780,2521
26790,1480
26800,2559
26810,1582
26820,2585
26830,1568
26840,2491
26850,1515
26860,2371
26870,1356
26880,2314
26890,1333
26900,2276
26910,1392
26920,2282
26930,1407
26940,2306
26950,1463
26960,2387
26970,1492
26980,2380
26990,4095
27000,4095
27010,4095
27020,4095
27030,4095
27040,4095
27050,4095
27060,4095
27070,4095
27080,4095
27090,4095
27100,4095
27110,4095
27120,3980
27130,2667
27140,3127
27150,2247
27160,2725
27170,1889
27180,2405
27190,1642
27200,2163
27210,1453
27220,1968
27230,1305
27240,1837
27250,1181
27260,1600
27270,1481
27280,3199
27290,1535
27300,935
27310,982
27320,1530
27330,864
27340,1363
27350,970
27360,1373
27370,977
27380,1411
27390,1066
27400,1389
27410,1119
27420,1469
27430,1211
27440,1525
27450,1273
27460,1617
27470,1378
27480,1594
27490,1463
27500,1607
27510,1359
27520,1523
27530,1259
27540,1373
27550,1202
27560,1313
27570,1251
27580,1297
27590,1304
27600,1377
27610,1360
27620,1427
27630,1459
27640,1104
27650,1123
27660,1078
27670,1133
27680,1171
27690,1591
27700,1587
27710,1675
27720,1509
27730,1691
27740,1517
27750,1801
27760,1715
27770,1842
27780,1659
27790,1776
27800,1499
27810,1770
27820,1472
27830,1791
27840,1465
27850,1887
27860,1514
27870,1878
27880,1503
27890,1943
27900,1582
27910,2023
27920,1585
27930,2027
27940,1655
27950,2509
27960,3326
27970,2608
27980,1091
27990,4095
28000,4095
28010,4095
28020,4095
28030,4095
28040,4095
28050,4095
28060,4095
28070,4095
28080,4095
28090,4095
28100,4095
28110,4095
28120,3935
28130,3865
28140,2782
28150,3429
28160,2430
28170,3033
28180,2163
28190,2687
28200,1743
28210,2354
28220,1371
28230,2069
28240,1103
28250,1872
28260,944
28270,1721
28280,835
28290,1699
28300,759
28310,1642
28320,766
28330,1673
28340,689
28350,1655
28360,663
28370,1611
28380,668
28390,1648
28400,565
28410,1641
28420,607
28430,1644
28440,624
28450,1757
28460,820
28470,1801
28480,794
28490,1793
28500,631
28510,1701
28520,574
28530,1770
28540,662
28550,1758
28560,656
28570,1831
28580,741
28590,1896
28600,811
28610,1967
28620,858
28630,2007
28640,901
28650,2240
28660,2109
28670,3353
28680,366
28690,2135
28700,1121
28710,2141
28720,1083
28730,2278
28740,1075
28750,2366
28760,1171
28770,2407
28780,1265
28790,2473
28800,1342
28810,2559
28820,1408
28830,2643
28840,1517
28850,2765
28860,1601
28870,2820
28880,1610
28890,2795
28900,1477
28910,2642
28920,1328
28930,2534
28940,1255
28950,2480
28960,1278
28970,2524
28980,1295
28990,4095
29000,4095
29010,4095
29020,4095
29030,4095
29040,4095
29050,4095
29060,4095
29070,4095
29080,4095
29090,4095
29100,4095
29110,4095
29120,3419
29130,3986
29140,2369
29150,3597
29160,2035
29170,3150
29180,1746
29190,2919
29200,1713
29210,2747
29220,1445
29230,2527
29240,1161
29250,2224
29260,1043
29270,2128
29280,895
29290,2035
29300,853
29310,1991
29320,766
29330,1948
29340,761
29350,1914
29360,785
29370,1874
29380,720
29390,1926
29400,1502
29410,3500
29420,528
29430,1519
29440,917
29450,1845
29460,799
29470,1840
29480,832
29490,1906
29500,869
29510,1968
29520,986
29530,2010
29540,1040
29550,2111
29560,1197
29570,2175
29580,1287
29590,2305
29600,1383
29610,2318
29620,1423
29630,2326
29640,1382
29650,2173
29660,1232
29670,2071
29680,1162
29690,1979
29700,1127
29710,1988
29720,1213
29730,2004
29740,1246
29750,2096
29760,1264
29770,2064
29780,1360
29790,2043
29800,1364
29810,2083
29820,1456
29830,2096
29840,1459
29850,2090
29860,1491
29870,2067
29880,1477
29890,2073
29900,1495
29910,2075
29920,1523
29930,2119
29940,1606
29950,2075
29960,1746
29970,2278
29980,1770
29990,4095
30000,4095
30010,4095
30020,4095
30030,4095
30040,4095
30050,4095
30060,4095
30070,4095
30080,4095
30090,4095
30100,4095
30110,4095
30120,3302
30130,3147
30140,2761
30150,2748
30160,2662
30170,4095
30180,3149
30190,1664
30200,1907
30210,2058
30220,1760
30230,1795
30240,1607
30250,1664
30260,1613
30270,1563
30280,1489
30290,1519
30300,1497
30310,1484
30320,1513
30330,1440
30340,1574
30350,1410
30360,1619
30370,1492
30380,1600
30390,1412
30400,1575
30410,1295
30420,1421
30430,1081
30440,1323
30450,993
30460,1183
30470,902
30480,1249
30490,909
30500,1266
30510,961
30520,1318
30530,1010
30540,1393
30550,992
30560,1447
30570,1074
30580,1514
30590,1041
30600,1587
30610,1058
30620,1630
30630,1138
30640,1621
30650,1111
30660,1719
30670,1153
30680,1773
30690,1344
30700,1967
30710,1309
30720,1905
30730,1233
30740,1845
30750,1175
30760,1898
30770,1200
30780,1894
30790,1210
30800,1978
30810,1237
30820,2075
30830,1307
30840,2094
30850,1319
30860,2178
30870,1347
30880,2191
30890,1843
30900,4095
30910,1712
30920,1802
30930,1456
30940,2350
30950,1414
30960,2307
30970,1424
30980,2341
30990,4095
31000,4095
31010,4095
31020,4095
31030,4095
31040,4095
31050,4095
31060,4095
31070,4095
31080,4095
31090,4095
31100,4095
31110,4095
31120,4095
31130,2735
31140,3610
31150,2142
31160,3007
31170,1691
31180,2585
31190,1411
31200,2347
31210,1196
31220,2213
31230,1023
31240,2143
31250,944
31260,2002
31270,810
31280,1994
31290,841
31300,1947
31310,730
31320,1857
31330,691
31340,1840
31350,673
31360,1841
31370,592
31380,1790
31390,607
31400,1491
31410,1460
31420,1435
31430,1429
31440,1413
31450,741
31460,1951
31470,685
31480,1937
31490,593
31500,1841
31510,591
31520,1868
31530,574
31540,1883
31550,641
31560,1933
31570,657
31580,1982
31590,734
31600,2043
31610,786
31620,2080
31630,784
31640,2287
31650,1899
31660,3632
31670,399
31680,1998
31690,1057
31700,2149
31710,930
31720,2162
31730,1009
31740,2208
31750,1063
31760,2315
31770,1136
31780,2414
31790,1214
31800,2465
31810,1310
31820,2559
31830,1395
31840,2648
31850,1467
31860,2635
31870,1555
31880,2608
31890,1456
31900,2499
31910,1285
31920,2405
31930,1203
31940,2331
31950,1211
31960,2335
31970,1263
31980,2390
31990,4095
32000,4095
32010,4095
32020,4095
32030,4095
32040,4095
32050,4095
32060,4095
32070,4095
32080,4095
32090,4095
32100,4095
32110,3617
32120,3682
32130,2523
32140,3377
32150,2096
32160,2951
32170,1816
32180,2687
32190,1567
32200,2416
32210,1502
32220,2391
32230,1311
32240,2194
32250,1168
32260,1883
32270,973
32280,1741
32290,900
32300,1675
32310,832
32320,1648
32330,838
32340,1614
32350,818
32360,1605
32370,866
32380,1561
32390,826
32400,1503
32410,1181
32420,3019
32430,1526
32440,1002
32450,963
32460,1605
32470,944
32480,1563
32490,993
32500,1558
32510,1056
32520,1648
32530,1107
32540,1679
32550,1189
32560,1747
32570,1328
32580,1777
32590,1399
32600,1857
32610,1518
32620,1936
32630,1578
32640,1931
32650,1535
32660,1840
32670,1454
32680,1654
32690,1376
32700,1611
32710,1339
32720,1586
32730,1360
32740,1611
32750,1451
32760,1698
32770,1516
32780,1667
32790,1600
32800,1729
32810,1699
32820,1734
32830,1708
32840,1713
32850,1744
32860,1723
32870,1804
32880,1744
32890,1799
32900,1766
32910,1855
32920,1779
32930,1878
32940,1765
32950,2003
32960,1895
32970,2128
32980,1967
32990,4095
33000,4095
33010,4095
33020,4095
33030,4095
33040,4095
33050,4095
33060,4095
33070,4095
33080,4095
33090,4095
33100,4095
33110,4095
33120,3105
33130,3365
33140,2720
33150,2931
33160,2909
33170,4095
33180,2475
33190,1968
33200,1851
33210,2258
33220,1602
33230,2094
33240,1472
33250,2031
33260,1365
33270,1927
33280,1284
33290,1908
33300,1263
33310,1909
33320,1213
33330,1961
33340,1222
33350,1985
33360,1258
33370,1988
33380,1234
33390,1954
33400,1127
33410,1824
33420,918
33430,1682
33440,833
33450,1638
33460,730
33470,1658
33480,778
33490,1664
33500,801
33510,1695
33520,842
33530,1805
33540,880
33550,1845
33560,910
33570,1915
33580,971
33590,1939
33600,1003
33610,1985
33620,962
33630,2039
33640,1040
33650,2065
33660,1038
33670,2101
33680,1058
33690,2206
33700,1311
33710,2320
33720,1216
33730,2240
33740,1120
33750,2192
33760,1080
33770,2205
33780,1136
33790,2276
33800,1168
33810,2326
33820,1170
33830,2339
33840,1276
33850,2377
33860,1261
33870,2431
33880,1234
33890,2710
33900,2595
33910,3645
33920,720
33930,2355
33940,1392
33950,2501
33960,1329
33970,2544
33980,1349
33990,4095
34000,4095
34010,4095
34020,4095
34030,4095
34040,4095
34050,4095
34060,4095
34070,4095
34080,4095
34090,4095
34100,4095
34110,4095
34120,3733
34130,4095
34140,2386
34150,3558
34160,2005
34170,2919
34180,1606
34190,2691
34200,1350
34210,2538
34220,1152
34230,2350
34240,1040
34250,2196
34260,963
34270,2168
34280,902
34290,2133
34300,865
34310,2071
34320,801
34330,1962
34340,778
34350,1974
34360,704
34370,1927
34380,719
34390,1901
34400,699
34410,1898
34420,711
34430,1899
34440,889
34450,2028
34460,841
34470,1938
34480,729
34490,1791
34500,658
34510,1793
34520,583
34530,1808
34540,689
34550,1813
34560,721
34570,1862
34580,813
34590,1871
34600,880
34610,1967
34620,906
34630,2017
34640,1636
34650,3838
34660,907
34670,1652
34680,1224
34690,2066
34700,1111
34710,2077
34720,1189
34730,2147
34740,1247
34750,2147
34760,1345
34770,2206
34780,1383
34790,2319
34800,1481
34810,2375
34820,1565
34830,2443
34840,1698
34850,2448
34860,1690
34870,2421
34880,1630
34890,2242
34900,1520
34910,2163
34920,1381
34930,2067
34940,1385
34950,2021
34960,1425
34970,2078
34980,1469
34990,4095
35000,4095
35010,4095
35020,4095
35030,4095
35040,4095
35050,4095
35060,4095
35070,4095
35080,4095
35090,4095
35100,4095
35110,3520
35120,2962
35130,3151
35140,2516
35150,2781
35160,2240
35170,2449
35180,1845
35190,1869
35200,1883
35210,1901
35220,1911
35230,1720
35240,1425
35250,1531
35260,1284
35270,1393
35280,1200
35290,1294
35300,1136
35310,1230
35320,1088
35330,1187
35340,1069
35350,1102
35360,1091
35370,1055
35380,1280
35390,2236
35400,2247
35410,534
35420,1011
35430,1126
35440,1091
35450,1037
35460,1159
35470,1070
35480,1221
35490,1023
35500,1351
35510,1136
35520,1392
35530,1217
35540,1505
35550,1264
35560,1628
35570,1346
35580,1699
35590,1441
35600,1776
35610,1425
35620,1802
35630,1317
35640,1675
35650,1170
35660,1594
35670,1063
35680,1523
35690,1031
35700,1527
35710,1035
35720,1621
35730,1078
35740,1670
35750,1139
35760,1727
35770,1126
35780,1783
35790,1168
35800,1843
35810,1184
35820,1911
35830,1216
35840,1961
35850,1221
35860,2007
35870,1239
35880,2002
35890,1264
35900,2011
35910,1266
35920,2241
35930,1456
35940,2256
35950,1469
35960,2194
35970,1353
35980,2206
35990,4095
36000,4095
36010,4095
36020,4095
36030,4095
36040,4095
36050,4095
36060,4095
36070,4095
36080,4095
36090,4095
36100,4095
36110,3297
36120,4095
36130,4095
36140,4095
36150,1791
36160,3067
36170,1989
36180,2781
36190,1633
36200,2611
36210,1431
36220,2451
36230,1376
36240,2405
36250,1204
36260,2305
36270,1163
36280,2283
36290,1155
36300,2323
36310,1168
36320,2347
36330,1198
36340,2343
36350,1182
36360,2266
36370,1008
36380,2110
36390,868
36400,1954
36410,797
36420,1968
36430,755
36440,1969
36450,758
36460,1993
36470,784
36480,2060
36490,851
36500,2081
36510,848
36520,2130
36530,964
36540,2160
36550,973
36560,2210
36570,976
36580,2226
36590,992
36600,2215
36610,1040
36620,2379
36630,1250
36640,2453
36650,1229
36660,2413
36670,1059
36680,2298
36690,1047
36700,2318
36710,1113
36720,2341
36730,1200
36740,2373
36750,1186
36760,2426
36770,1258
36780,2446
36790,1240
36800,2475
36810,1270
36820,2593
36830,2271
36840,4095
36850,993
36860,2228
36870,1471
36880,2549
36890,1373
36900,2527
36910,1488
36920,2597
36930,1507
36940,2654
36950,1583
36960,2709
36970,1601
36980,2763
36990,4095
37000,4095
37010,4095
37020,4095
37030,4095
37040,4095
37050,4095
37060,4095
37070,4095
37080,4095
37090,4095
37100,4095
37110,3677
37120,3643
37130,2416
37140,3344
37150,2112
37160,2910
37170,1815
37180,2661
37190,1601
37200,2389
37210,1449
37220,2224
37230,1341
37240,2122
37250,1152
37260,1963
37270,1079
37280,1823
37290,1021
37300,1765
37310,945
37320,1713
37330,991
37340,1875
37350,1043
37360,1744
37370,948
37380,1562
37390,838
37400,1502
37410,848
37420,1523
37430,878
37440,1493
37450,955
37460,1505
37470,953
37480,1615
37490,1017
37500,1533
37510,1049
37520,1559
37530,1355
37540,2947
37550,2288
37560,1023
37570,1122
37580,1778
37590,1269
37600,1642
37610,1333
37620,1683
37630,1422
37640,1701
37650,1561
37660,1808
37670,1609
37680,1902
37690,1749
37700,1936
37710,1821
37720,1981
37730,1953
37740,2083
37750,2006
37760,2078
37770,1965
37780,1968
37790,1852
37800,1840
37810,1711
37820,1671
37830,1648
37840,1639
37850,1677
37860,1684
37870,1741
37880,1694
37890,1857
37900,1722
37910,1915
37920,1758
37930,1917
37940,1756
37950,1970
37960,1783
37970,1975
37980,1712
37990,4095
38000,4095
38010,4095
38020,4095
38030,4095
38040,4095
38050,4095
38060,4095
38070,4095
38080,4095
38090,4095
38100,4095
38110,3569
38120,2779
38130,3152
38140,2449
38150,2784
38160,2128
38170,2521
38180,1811
38190,2343
38200,1670
38210,2153
38220,1529
38230,2032
38240,1535
38250,3257
38260,2449
38270,1346
38280,1072
38290,1991
38300,1088
38310,1817
38320,1033
38330,1830
38340,1034
38350,1845
38360,1043
38370,1920
38380,1089
38390,1981
38400,1164
38410,2017
38420,1152
38430,2127
38440,1279
38450,2128
38460,1298
38470,2181
38480,1206
38490,2099
38500,1094
38510,1971
38520,915
38530,1919
38540,889
38550,1909
38560,889
38570,1945
38580,935
38590,2010
38600,961
38610,2087
38620,1008
38630,2160
38640,1047
38650,2161
38660,1008
38670,2145
38680,1079
38690,2169
38700,1037
38710,2183
38720,1086
38730,2235
38740,1100
38750,2215
38760,1226
38770,2448
38780,1333
38790,2463
38800,1275
38810,2386
38820,1183
38830,2319
38840,1227
38850,2405
38860,1212
38870,2432
38880,1244
38890,2463
38900,1232
38910,2493
38920,1405
38930,1411
38940,1418
38950,1440
38960,1424
38970,3335
38980,2839
38990,4095
39000,4095
39010,4095
39020,4095
39030,4095
39040,4095
39050,4095
39060,4095
39070,4095
39080,4095
39090,4095
39100,3530
39110,4095
39120,2635
39130,3968
39140,2303
39150,3539
39160,2110
39170,3206
39180,1882
39190,2995
39200,1627
39210,2755
39220,1376
39230,2380
39240,1072
39250,2117
39260,901
39270,2042
39280,784
39290,1967
39300,740
39310,1921
39320,752
39330,1925
39340,743
39350,1904
39360,723
39370,1893
39380,730
39390,1824
39400,704
39410,1874
39420,672
39430,1840
39440,745
39450,1808
39460,789
39470,1964
39480,882
39490,1984
39500,896
39510,1847
39520,792
39530,1802
39540,783
39550,1790
39560,781
39570,1794
39580,861
39590,1843
39600,912
39610,1869
39620,1010
39630,1856
39640,1023
39650,1911
39660,999
39670,2398
39680,2829
39690,2256
39700,670
39710,2046
39720,1271
39730,1968
39740,1310
39750,2090
39760,1327
39770,2090
39780,1408
39790,2141
39800,1490
39810,2175
39820,1562
39830,2258
39840,1680
39850,2303
39860,1793
39870,2384
39880,1776
39890,2438
39900,1871
39910,2304
39920,1745
39930,2167
39940,1648
39950,2047
39960,1569
39970,1970
39980,1611
39990,4095
40000,4095
40010,4095
40020,4095
40030,4095
40040,4095
40050,4095
40060,4095
40070,4095
40080,4095
40090,4095
40100,4095
40110,3462
40120,3105
40130,3079
40140,2706
40150,2773
40160,2581
40170,2734
40180,2412
40190,2384
40200,2130
40210,2093
40220,1950
40230,1893
40240,1867
40250,1744
40260,1789
40270,1693
40280,1775
40290,1678
40300,1728
40310,1677
40320,1763
40330,1641
40340,1791
40350,1568
40360,2045
40370,2877
40380,2956
40390,1017
40400,1683
40410,1718
40420,1851
40430,1583
40440,1973
40450,1600
40460,2023
40470,1664
40480,2096
40490,1690
40500,2187
40510,1776
40520,2317
40530,1875
40540,2409
40550,1921
40560,2483
40570,1921
40580,2557
40590,1962
40600,2495
40610,1893
40620,2350
40630,1825
40640,2309
40650,1658
40660,2319
40670,1632
40680,2354
40690,1654
40700,2410
40710,1667
40720,2480
40730,1745
40740,2497
40750,1711
40760,2613
40770,1787
40780,2559
40790,1722
40800,2559
40810,1691
40820,2621
40830,1820
40840,2736
40850,1776
40860,2711
40870,1651
40880,2499
40890,1490
40900,2419
40910,1510
40920,2461
40930,1457
40940,2471
40950,1484
40960,2447
40970,1463
40980,2497
40990,4095
41000,4095
41010,4095
41020,4095
41030,4095
41040,4095
41050,4095
41060,4095
41070,4095
41080,4095
41090,4095
41100,4095
41110,2851
41120,3875
41130,2337
41140,3392
41150,2015
41160,2976
41170,1840
41180,2789
41190,1535
41200,2706
41210,1385
41220,2511
41230,1267
41240,2371
41250,1189
41260,2193
41270,948
41280,2096
41290,661
41300,1785
41310,503
41320,1648
41330,430
41340,1583
41350,470
41360,1636
41370,368
41380,1680
41390,367
41400,1675
41410,395
41420,1702
41430,438
41440,1649
41450,437
41460,1680
41470,458
41480,1711
41490,436
41500,1877
41510,641
41520,1866
41530,657
41540,1811
41550,464
41560,1727
41570,448
41580,1754
41590,456
41600,1764
41610,545
41620,1774
41630,595
41640,1840
41650,640
41660,1935
41670,653
41680,1907
41690,693
41700,2390
41710,2402
41720,2270
41730,241
41740,2103
41750,873
41760,2027
41770,895
41780,2063
41790,962
41800,2112
41810,981
41820,2173
41830,1071
41840,2201
41850,1149
41860,2285
41870,1251
41880,2334
41890,1289
41900,2352
41910,1395
41920,2370
41930,1343
41940,2299
41950,1276
41960,2192
41970,1136
41980,2084
41990,4095
42000,4095
42010,4095
42020,4095
42030,4095
42040,4095
42050,4095
42060,4095
42070,4095
42080,4095
42090,3375
42100,3762
42110,2651
42120,3314
42130,2256
42140,2960
42150,1979
42160,2606
42170,1761
42180,2500
42190,1699
42200,2260
42210,1491
42220,1945
42230,1145
42240,1818
42250,1072
42260,1664
42270,1018
42280,1562
42290,957
42300,1568
42310,966
42320,1510
42330,989
42340,1493
42350,1008
42360,1460
42370,1073
42380,2235
42390,2707
42400,1270
42410,656
42420,1631
42430,1067
42440,1437
42450,1122
42460,1456
42470,1170
42480,1500
42490,1239
42500,1505
42510,1341
42520,1589
42530,1398
42540,1681
42550,1521
42560,1726
42570,1665
42580,1764
42590,1648
42600,1822
42610,1677
42620,1722
42630,1584
42640,1515
42650,1519
42660,1461
42670,1430
42680,1400
42690,1318
42700,1344
42710,1361
42720,1364
42730,1642
42740,1501
42750,1658
42760,1482
42770,1692
42780,1469
42790,1712
42800,1479
42810,1738
42820,1464
42830,1782
42840,1434
42850,1873
42860,1616
42870,2057
42880,1614
42890,2035
42900,1570
42910,1919
42920,1451
42930,1876
42940,1443
42950,1927
42960,1450
42970,2007
42980,1478
42990,4095
43000,4095
43010,4095
43020,4095
43030,4095
43040,4095
43050,4095
43060,4095
43070,4095
43080,4095
43090,4095
43100,4087
43110,3776
43120,2636
43130,3261
43140,2337
43150,2947
43160,2062
43170,2746
43180,1835
43190,2559
43200,1647
43210,2437
43220,1569
43230,2355
43240,1471
43250,2311
43260,1386
43270,2301
43280,1330
43290,2196
43300,1192
43310,2064
43320,987
43330,1827
43340,806
43350,1744
43360,726
43370,1715
43380,704
43390,1742
43400,693
43410,1779
43420,761
43430,1809
43440,817
43450,1825
43460,814
43470,1862
43480,868
43490,1895
43500,800
43510,1966
43520,848
43530,1984
43540,874
43550,2110
43560,1077
43570,2176
43580,1061
43590,2144
43600,871
43610,2061
43620,868
43630,2098
43640,896
43650,2122
43660,907
43670,2192
43680,991
43690,2189
43700,1051
43710,2293
43720,1088
43730,2310
43740,1072
43750,2462
43760,2210
43770,4095
43780,647
43790,2285
43800,1360
43810,2408
43820,1199
43830,2448
43840,1187
43850,2448
43860,1312
43870,2592
43880,1344
43890,2612
43900,1377
43910,2672
43920,1436
43930,2673
43940,1535
43950,2768
43960,1499
43970,2832
43980,1553
43990,4095
44000,4095
44010,4095
44020,4095
44030,4095
44040,4095
44050,4095
44060,4095
44070,4095
44080,4095
44090,4095
44100,3283
44110,4092
44120,2477
44130,3600
44140,2062
44150,3207
44160,1774
44170,2831
44180,1520
44190,2540
44200,1347
44210,2357
44220,1136
44230,2235
44240,995
44250,2128
44260,1109
44270,2101
44280,932
44290,2006
44300,797
44310,1723
44320,708
44330,1761
44340,684
44350,1650
44360,765
44370,1736
44380,730
44390,1761
44400,782
44410,1762
44420,810
44430,1773
44440,752
44450,1927
44460,1953
44470,3153
44480,386
44490,1690
44500,1088
44510,1843
44520,898
44530,1865
44540,985
44550,1882
44560,1115
44570,1887
44580,1168
44590,1957
44600,1228
44610,2017
44620,1319
44630,2118
44640,1451
44650,2174
44660,1517
44670,2192
44680,1535
44690,2176
44700,1511
44710,2025
44720,1311
44730,1872
44740,1341
44750,1875
44760,1307
44770,1825
44780,1338
44790,1895
44800,1426
44810,1866
44820,1458
44830,1922
44840,1535
44850,1935
44860,1568
44870,1926
44880,1552
44890,1891
44900,1648
44910,1916
44920,1626
44930,1936
44940,1831
44950,2026
44960,1846
44970,2066
44980,1792
44990,4095
45000,4095
45010,4095
45020,4095
45030,4095
45040,4095
45050,4095
45060,4095
45070,4095
45080,4095
45090,4095
45100,4095
45110,3222
45120,3139
45130,2865
45140,3472
45150,4095
45160,2541
45170,1728
45180,2303
45190,2000
45200,2002
45210,1728
45220,1905
45230,1655
45240,1770
45250,1517
45260,1731
45270,1453
45280,1718
45290,1403
45300,1698
45310,1331
45320,1773
45330,1360
45340,1787
45350,1393
45360,1778
45370,1328
45380,1695
45390,1078
45400,1584
45410,985
45420,1431
45430,882
45440,1479
45450,896
45460,1479
45470,922
45480,1589
45490,947
45500,1587
45510,1011
45520,1652
45530,1050
45540,1767
45550,991
45560,1822
45570,1057
45580,1876
45590,1093
45600,1902
45610,1207
45620,2118
45630,1283
45640,2097
45650,1227
45660,1999
45670,1135
45680,1995
45690,1116
45700,2035
45710,1150
45720,2071
45730,1115
45740,2123
45750,1237
45760,2214
45770,1252
45780,2227
45790,1283
45800,2215
45810,1709
45820,4095
45830,1942
45840,1854
45850,1382
45860,2478
45870,1347
45880,2448
45890,1408
45900,2471
45910,1441
45920,2546
45930,1463
45940,2581
45950,1561
45960,2714
45970,1589
45980,2769
45990,4095
46000,4095
46010,4095
46020,4095
46030,4095
46040,4095
46050,4095
46060,4095
46070,4095
46080,4095
46090,4095
46100,4095
46110,2803
46120,3850
46130,2254
46140,3423
46150,1982
46160,3045
46170,1683
46180,2832
46190,1433
46200,2522
46210,1243
46220,2365
46230,975
46240,2230
46250,912
46260,2098
46270,769
46280,1984
46290,812
46300,2066
46310,739
46320,1971
46330,599
46340,1777
46350,486
46360,1744
46370,501
46380,1757
46390,480
46400,1744
46410,473
46420,1760
46430,605
46440,1827
46450,571
46460,1009
46470,1010
46480,1008
46490,1067
46500,3600
46510,1054
46520,1461
46530,847
46540,2029
46550,773
46560,2055
46570,858
46580,2092
46590,918
46600,2219
46610,980
46620,2245
46630,1135
46640,2311
46650,1190
46660,2447
46670,1312
46680,2474
46690,1409
46700,2559
46710,1453
46720,2550
46730,1393
46740,2417
46750,1266
46760,2314
46770,1139
46780,2220
46790,1181
46800,2192
46810,1197
46820,2215
46830,1238
46840,2271
46850,1264
46860,2308
46870,1312
46880,2272
46890,1338
46900,2287
46910,1331
46920,2256
46930,1334
46940,2275
46950,1409
46960,2341
46970,1535
46980,2337
46990,4095
47000,4095
47010,4095
47020,4095
47030,4095
47040,4095
47050,4095
47060,4095
47070,4095
47080,4095
47090,4095
47100,4003
47110,2921
47120,3383
47130,2471
47140,2973
47150,2144
47160,2954
47170,3461
47180,3088
47190,1168
47200,2105
47210,1597
47220,1968
47230,1381
47240,1860
47250,1298
47260,1731
47270,1236
47280,1680
47290,1239
47300,1623
47310,1315
47320,1649
47330,1325
47340,1695
47350,1341
47360,1717
47370,1403
47380,1744
47390,1421
47400,1620
47410,1311
47420,1498
47430,1184
47440,1332
47450,1118
47460,1297
47470,1152
47480,1281
47490,1197
47500,1331
47510,1281
47520,1363
47530,1376
47540,1424
47550,1395
47560,1419
47570,1442
47580,1458
47590,1535
47600,1461
47610,1575
47620,1524
47630,1794
47640,1663
47650,1767
47660,1631
47670,1776
47680,1486
47690,1680
47700,1514
47710,1759
47720,1458
47730,1817
47740,1599
47750,1844
47760,1596
47770,1907
47780,1618
47790,1973
47800,1587
47810,2032
47820,1627
47830,2612
47840,3346
47850,2330
47860,1197
47870,2181
47880,1718
47890,2180
47900,1650
47910,2224
47920,1690
47930,2320
47940,1685
47950,2362
47960,1758
47970,2413
47980,1805
47990,4095
48000,4095
48010,4095
48020,4095
48030,4095
48040,4095
48050,4095
48060,4095
48070,4095
48080,4095
48090,4095
48100,4095
48110,4095
48120,2677
48130,3503
48140,2320
48150,3081
48160,2038
48170,2783
48180,1776
48190,2581
48200,1593
48210,2430
48220,1392
48230,2318
48240,1294
48250,2176
48260,1150
48270,2073
48280,1050
48290,2052
48300,1078
48310,2167
48320,1019
48330,2062
48340,880
48350,1861
48360,737
48370,1773
48380,718
48390,1808
48400,699
48410,1809
48420,717
48430,1854
48440,714
48450,1879
48460,703
48470,1917
48480,752
48490,1936
48500,937
48510,2932
48520,2176
48530,1623
48540,624
48550,2159
48560,855
48570,2067
48580,874
48590,2157
48600,962
48610,2182
48620,1001
48630,2288
48640,1095
48650,2355
48660,1154
48670,2414
48680,1298
48690,2543
48700,1335
48710,2621
48720,1381
48730,2634
48740,1395
48750,2514
48760,1232
48770,2355
48780,1081
48790,2291
48800,1023
48810,2278
48820,1075
48830,2352
48840,1104
48850,2381
48860,1152
48870,2415
48880,1210
48890,2448
48900,1198
48910,2487
48920,1268
48930,2467
48940,1243
48950,2476
48960,1283
48970,2503
48980,1254
48990,4095
49000,4095
49010,4095
49020,4095
49030,4095
49040,4095
49050,4095
49060,4095
49070,4095
49080,4095
49090,4095
49100,3438
49110,4016
49120,2515
49130,3578
49140,2109
49150,3171
49160,1837
49170,2798
49180,1571
49190,2800
49200,2598
49210,3750
49220,735
49230,2156
49240,1241
49250,2128
49260,1040
49270,2034
49280,993
49290,2026
49300,964
49310,1968
49320,961
49330,1984
49340,1043
49350,1975
49360,1097
49370,2047
49380,1127
49390,2078
49400,1201
49410,2111
49420,1190
49430,2029
49440,1113
49450,1903
49460,931
49470,1765
49480,903
49490,1649
49500,887
49510,1725
49520,915
49530,1727
49540,974
49550,1773
49560,1098
49570,1809
49580,1143
49590,1852
49600,1187
49610,1824
49620,1211
49630,1837
49640,1269
49650,1814
49660,1311
49670,1851
49680,1310
49690,1824
49700,1365
49710,1843
49720,1424
49730,1985
49740,1653
49750,1987
49760,1622
49770,1968
49780,1479
49790,1863
49800,1581
49810,1874
49820,1589
49830,1873
49840,1617
49850,1905
49860,1674
49870,1904
49880,1760
49890,1950
49900,1774
49910,1935
49920,1796
49930,2145
49940,3110
49950,3030
49960,1334
49970,1859
49980,1965
49990,4095
50000,4095
50010,4095
50020,4095
50030,4095
50040,4095
50050,4095
50060,4095
50070,4095
50080,4095
50090,4095
50100,4095
50110,3792
50120,3547
50130,3094
50140,3151
50150,2791
50160,2854
50170,2415
50180,2416
50190,2035
50200,2140
50210,2077
50220,2104
50230,2124
50240,2117
50250,1277
50260,1614
50270,1170
50280,1600
50290,1158
50300,1522
50310,1103
50320,1577
50330,1067
50340,1593
50350,978
50360,1568
50370,1011
50380,1588
50390,973
50400,1572
50410,976
50420,1647
50430,1046
50440,1698
50450,958
50460,1710
50470,1023
50480,1877
50490,1136
50500,1893
50510,1083
50520,1834
50530,966
50540,1798
50550,964
50560,1840
50570,1047
50580,1858
50590,1001
50600,1920
50610,1045
50620,1932
50630,1159
50640,2031
50650,1188
50660,2096
50670,1193
50680,2589
50690,2796
50700,2526
50710,745
50720,2304
50730,1315
50740,2304
50750,1343
50760,2356
50770,1306
50780,2432
50790,1391
50800,2476
50810,1505
50820,2529
50830,1535
50840,2640
50850,1557
50860,2752
50870,1673
50880,2819
50890,1595
50900,2838
50910,1644
50920,2743
50930,1517
50940,2559
50950,1351
50960,2438
50970,1275
50980,2481
50990,4095
51000,4095
51010,4095
51020,4095
51030,4095
51040,4095
51050,4095
51060,4095
51070,4095
51080,4095
51090,4095
51100,4095
51110,2700
51120,3962
51130,2253
51140,3349
51150,1936
51160,3055
51170,1671
51180,2782
51190,1418
51200,2603
51210,1238
51220,2401
51230,1085
51240,2337
51250,1101
51260,2336
51270,985
51280,2245
51290,898
51300,2000
51310,734
51320,1920
51330,683
51340,1905
51350,620
51360,1905
51370,528
51380,1895
51390,615
51400,1924
51410,610
51420,1903
51430,624
51440,1850
51450,879
51460,3174
51470,1725
51480,1375
51490,580
51500,2027
51510,691
51520,1921
51530,784
51540,1984
51550,782
51560,2069
51570,869
51580,2103
51590,918
51600,2198
51610,1076
51620,2272
51630,1207
51640,2347
51650,1320
51660,2430
51670,1392
51680,2449
51690,1328
51700,2362
51710,1232
51720,2176
51730,1072
51740,2123
51750,1010
51760,2077
51770,1102
51780,2098
51790,1121
51800,2153
51810,1126
51820,2218
51830,1229
51840,2195
51850,1310
51860,2201
51870,1286
51880,2331
51890,1355
51900,2251
51910,1393
51920,2231
51930,1421
51940,2239
51950,1483
51960,2321
51970,1520
51980,2273
51990,4095
52000,4095
52010,4095
52020,4095
52030,4095
52040,4095
52050,4095
52060,4095
52070,4095
52080,4095
52090,4095
52100,4095
52110,3123
52120,3294
52130,2535
52140,2963
52150,2231
52160,2624
52170,1974
52180,2419
52190,1803
52200,2190
52210,1675
52220,2061
52230,1559
52240,1941
52250,1458
52260,2217
52270,3019
52280,2341
52290,889
52300,1840
52310,1461
52320,1659
52330,1423
52340,1637
52350,1403
52360,1664
52370,1401
52380,1638
52390,1472
52400,1654
52410,1535
52420,1721
52430,1616
52440,1737
52450,1735
52460,1789
52470,1835
52480,1827
52490,1799
52500,1796
52510,1681
52520,1616
52530,1579
52540,1427
52550,1478
52560,1365
52570,1476
52580,1366
52590,1488
52600,1445
52610,1641
52620,1494
52630,1647
52640,1446
52650,1733
52660,1455
52670,1747
52680,1477
52690,1819
52700,1471
52710,1868
52720,1491
52730,1867
52740,1517
52750,1918
52760,1535
52770,1956
52780,1520
52790,1991
52800,1509
52810,2137
52820,1715
52830,2173
52840,1718
52850,2175
52860,1535
52870,2042
52880,1475
52890,2095
52900,1454
52910,2128
52920,1459
52930,2198
52940,1515
52950,2201
52960,1475
52970,2199
52980,1531
52990,4095
53000,4095
53010,4095
53020,4095
53030,4095
53040,4095
53050,4095
53060,4095
53070,4095
53080,4095
53090,4095
53100,3477
53110,3982
53120,2637
53130,3424
53140,2375
53150,3167
53160,2111
53170,2944
53180,1898
53190,2804
53200,1787
53210,2662
53220,1701
53230,2594
53240,1517
53250,2436
53260,1324
53270,2207
53280,969
53290,1953
53300,829
53310,1799
53320,721
53330,1798
53340,699
53350,1813
53360,694
53370,1821
53380,706
53390,1837
53400,733
53410,1888
53420,731
53430,1887
53440,749
53450,1952
53460,753
53470,1940
53480,775
53490,1973
53500,816
53510,1997
53520,807
53530,2058
53540,862
53550,2201
53560,1007
53570,2207
53580,954
53590,2140
53600,854
53610,2096
53620,866
53630,2175
53640,923
53650,2192
53660,923
53670,2193
53680,1022
53690,2282
53700,1072
53710,2320
53720,1075
53730,2354
53740,1178
53750,3347
53760,2622
53770,2070
53780,967
53790,2580
53800,1218
53810,2465
53820,1273
53830,2590
53840,1287
53850,2542
53860,1388
53870,2670
53880,1408
53890,2688
53900,1494
53910,2784
53920,1574
53930,2864
53940,1625
53950,2917
53960,1648
53970,1443
53980,4095
53990,4095
54000,4095
54010,4095
54020,4095
54030,4095
54040,4095
54050,4095
54060,4095
54070,4095
54080,4095
54090,4095
54100,3290
54110,4095
54120,2599
54130,3765
54140,2223
54150,3243
54160,1936
54170,2943
54180,1701
54190,2661
54200,1483
54210,2521
54220,1344
54230,2321
54240,1194
54250,2195
54260,1153
54270,2256
54280,1129
54290,2134
54300,1040
54310,1904
54320,848
54330,1794
54340,838
54350,1776
54360,753
54370,1771
54380,819
54390,1747
54400,771
54410,1748
54420,813
54430,1734
54440,870
54450,1715
54460,1243
54470,3216
54480,1659
54490,1173
54500,995
54510,1835
54520,1023
54530,1781
54540,1038
54550,1834
54560,1081
54570,1899
54580,1182
54590,1887
54600,1328
54610,1941
54620,1377
54630,1995
54640,1457
54650,2160
54660,1616
54670,2185
54680,1647
54690,2148
54700,1641
54710,2003
54720,1504
54730,1901
54740,1373
54750,1813
54760,1361
54770,1801
54780,1410
54790,1824
54800,1471
54810,1818
54820,1495
54830,1838
54840,1535
54850,1904
54860,1616
54870,1877
54880,1648
54890,1878
54900,1663
54910,1861
54920,1709
54930,1840
54940,1726
54950,1915
54960,1933
54970,2109
54980,1925
54990,2013
55000,4095
55010,4095
55020,4095
55030,4095
55040,4095
55050,4095
55060,4095
55070,4095
55080,4095
55090,4095
55100,4095
55110,3319
55120,3313
55130,2851
55140,2946
55150,2555
55160,3046
55170,4095
55180,2803
55190,1535
55200,2270
55210,1888
55220,2057
55230,1658
55240,1984
55250,1601
55260,1898
55270,1490
55280,1897
55290,1442
55300,1858
55310,1488
55320,1921
55330,1493
55340,1977
55350,1497
55360,2065
55370,1535
55380,2065
55390,1486
55400,1971
55410,1294
55420,1821
55430,1123
55440,1637
55450,1042
55460,1700
55470,1006
55480,1720
55490,1063
55500,1728
55510,1146
55520,1825
55530,1126
55540,1855
55550,1090
55560,1904
55570,1151
55580,1991
55590,1153
55600,2015
55610,1221
55620,1975
55630,1232
55640,2102
55650,1408
55660,2213
55670,1354
55680,2224
55690,1223
55700,2092
55710,1199
55720,2102
55730,1249
55740,2169
55750,1219
55760,2234
55770,1207
55780,2255
55790,1301
55800,2293
55810,1294
55820,2352
55830,1296
55840,2368
55850,1945
55860,4095
55870,1296
55880,1999
55890,1434
55900,2483
55910,1331
55920,2448
55930,1364
55940,2451
55950,1351
55960,2530
55970,1397
55980,2543
55990,1449
56000,4095
56010,4095
56020,4095
56030,4095
56040,4095
56050,4095
56060,4095
56070,4095
56080,4095
56090,4095
56100,4095
56110,3269
56120,3907
56130,2212
56140,3408
56150,1913
56160,2966
56170,1722
56180,2736
56190,1399
56200,2559
56210,1232
56220,2386
56230,1077
56240,2305
56250,912
56260,2225
56270,882
56280,2130
56290,816
56300,2053
56310,752
56320,2144
56330,863
56340,2033
56350,787
56360,2023
56370,617
56380,1781
56390,621
56400,1850
56410,528
56420,1858
56430,624
56440,1878
56450,635
56460,1924
56470,710
56480,1971
56490,740
56500,1982
56510,710
56520,2291
56530,2272
56540,2795
56550,263
56560,2111
56570,976
56580,2082
56590,945
56600,2151
56610,975
56620,2160
56630,1054
56640,2274
56650,1072
56660,2321
56670,1260
56680,2384
56690,1317
56700,2489
56710,1411
56720,2544
56730,1466
56740,2603
56750,1485
56760,2454
56770,1392
56780,2428
56790,1249
56800,2250
56810,1207
56820,2231
56830,1197
56840,2257
56850,1244
56860,2274
56870,1293
56880,2306
56890,1392
56900,2358
56910,1397
56920,2354
56930,1397
56940,2416
56950,1471
56960,2337
56970,1487
56980,2355
56990,1490
57000,4095
57010,4095
57020,4095
57030,4095
57040,4095
57050,4095
57060,4095
57070,4095
57080,4095
57090,4095
57100,4095
57110,3152
57120,3623
57130,2640
57140,3201
57150,2416
57160,2874
57170,2073
57180,2655
57190,1885
57200,2378
57210,1806
57220,2957
57230,3183
57240,1901
57250,1149
57260,2126
57270,1389
57280,1840
57290,1362
57300,1776
57310,1296
57320,1754
57330,1315
57340,1735
57350,1318
57360,1733
57370,1390
57380,1757
57390,1534
57400,1757
57410,1569
57420,1842
57430,1605
57440,1829
57450,1535
57460,1718
57470,1371
57480,1534
57490,1315
57500,1392
57510,1225
57520,1398
57530,1275
57540,1381
57550,1289
57560,1386
57570,1361
57580,1410
57590,1392
57600,1444
57610,1468
57620,1477
57630,1535
57640,1487
57650,1577
57660,1445
57670,1589
57680,1515
57690,1645
57700,1520
57710,1776
57720,1523
57730,1523
57740,1518
57750,1494
57760,1441
57770,1776
57780,1434
57790,1765
57800,1472
57810,1783
57820,1535
57830,1886
57840,1535
57850,1923
57860,1566
57870,2021
57880,1556
57890,2062
57900,1582
57910,2153
57920,2337
57930,3851
57940,1392
57950,1839
57960,1791
57970,2192
57980,1653
57990,2198
58000,4095
58010,4095
58020,4095
58030,4095
58040,4095
58050,4095
58060,4095
58070,4095
58080,4095
58090,4095
58100,4095
58110,4095
58120,3515
58130,4031
58140,2793
58150,3468
58160,2375
58170,2959
58180,1939
58190,2559
58200,1623
58210,2330
58220,1454
58230,2204
58240,1241
58250,2097
58260,1150
58270,2055
58280,1094
58290,2000
58300,1005
58310,1975
58320,935
58330,1954
58340,976
58350,1905
58360,896
58370,1904
58380,910
58390,1877
58400,855
58410,2016
58420,1005
58430,1985
58440,934
58450,1991
58460,832
58470,1914
58480,799
58490,1933
58500,834
58510,1936
58520,873
58530,2016
58540,881
58550,2019
58560,880
58570,2096
58580,962
58590,2119
58600,978
58610,2285
58620,1881
58630,4031
58640,720
58650,1968
58660,1201
58670,2308
58680,1074
58690,2323
58700,1136
58710,2358
58720,1179
58730,2445
58740,1200
58750,2489
58760,1355
58770,2593
58780,1381
58790,2663
58800,1461
58810,2752
58820,1525
58830,2835
58840,1565
58850,2752
58860,1451
58870,2614
58880,1281
58890,2486
58900,1155
58910,2403
58920,1184
58930,2401
58940,1136
58950,2409
58960,1180
58970,2448
58980,1201
58990,2480
59000,4095
59010,4095
59020,4095
59030,4095
59040,4095
59050,4095
59060,4095
59070,4095
59080,4095
59090,4095
59100,3113
59110,4095
59120,2658
59130,3932
59140,2293
59150,3469
59160,1867
59170,2908
59180,1573
59190,2695
59200,1334
59210,2512
59220,1266
59230,2368
59240,1131
59250,2288
59260,1100
59270,2170
59280,1008
59290,2115
59300,918
59310,2079
59320,1567
59330,3745
59340,822
59350,1599
59360,978
59370,2000
59380,895
59390,1946
59400,905
59410,1968
59420,944
59430,1999
59440,966
59450,2083
59460,1056
59470,2129
59480,1158
59490,2205
59500,1269
59510,2218
59520,1396
59530,2302
59540,1393
59550,2293
59560,1328
59570,2161
59580,1174
59590,2064
59600,1166
59610,2000
59620,1167
59630,2101
59640,1248
59650,2173
59660,1304
59670,2207
59680,1427
59690,2223
59700,1486
59710,2270
59720,1556
59730,2302
59740,1591
59750,2363
59760,1634
59770,2334
59780,1677
59790,2325
59800,1707
59810,2353
59820,1701
59830,2385
59840,1968
59850,2431
59860,1939
59870,2505
59880,1826
59890,2306
59900,1823
59910,2386
59920,1854
59930,2283
59940,1847
59950,2295
59960,1979
59970,2319
59980,1968
59990,2297
