timestamp,value
0,165
10,160
20,150
30,159
40,182
50,144
60,240
70,214
80,238
90,174
100,231
110,161
120,240
130,160
140,235
150,157
160,241
170,166
180,230
190,148
200,231
210,192
220,223
230,160
240,235
250,162
260,229
270,160
280,227
290,161
300,229
310,159
320,244
330,160
340,224
350,159
360,221
370,159
380,222
390,160
400,257
410,160
420,223
430,158
440,219
450,162
460,216
470,197
480,221
490,150
500,220
510,170
520,215
530,156
540,174
550,160
560,149
570,162
580,169
590,148
600,187
610,165
620,187
630,154
640,228
650,142
660,190
670,161
680,195
690,173
700,194
710,181
720,196
730,174
740,190
750,177
760,195
770,174
780,185
790,181
800,187
810,178
820,187
830,181
840,176
850,176
860,176
870,185
880,176
890,185
900,173
910,183
920,164
930,185
940,173
950,186
960,142
970,179
980,153
990,166
1000,162
1010,154
1020,157
1030,159
1040,208
1050,180
1060,147
1070,179
1080,112
1090,190
1100,144
1110,205
1120,127
1130,184
1140,122
1150,183
1160,144
1170,176
1180,145
1190,176
1200,151
1210,178
1220,177
1230,178
1240,145
1250,89
1260,166
1270,139
1280,158
1290,177
1300,172
1310,176
1320,176
1330,181
1340,176
1350,172
1360,177
1370,206
1380,173
1390,128
1400,173
1410,178
1420,183
1430,178
1440,179
1450,177
1460,181
1470,177
1480,183
1490,171
1500,183
1510,176
1520,192
1530,256
1540,195
1550,178
1560,185
1570,182
1580,187
1590,175
1600,179
1610,190
1620,179
1630,179
1640,182
1650,177
1660,67
1670,179
1680,179
1690,205
1700,184
1710,176
1720,178
1730,176
1740,165
1750,176
1760,191
1770,194
1780,144
1790,177
1800,176
1810,196
1820,178
1830,187
1840,169
1850,187
1860,217
1870,178
1880,151
1890,178
1900,272
1910,177
1920,196
1930,134
1940,177
1950,160
1960,179
1970,134
1980,191
1990,144
2000,162
2010,158
2020,155
2030,141
2040,196
2050,237
2060,176
2070,174
2080,176
2090,177
2100,176
2110,166
2120,169
2130,176
2140,210
2150,185
2160,175
2170,188
2180,176
2190,205
2200,174
2210,178
2220,173
2230,182
2240,157
2250,179
2260,176
2270,180
2280,145
2290,182
2300,176
2310,176
2320,219
2330,181
2340,176
2350,177
2360,204
2370,187
2380,174
2390,182
2400,172
2410,176
2420,171
2430,154
2440,175
2450,177
2460,173
2470,180
2480,174
2490,181
2500,174
2510,183
2520,170
2530,183
2540,174
2550,183
2560,172
2570,185
2580,171
2590,180
2600,164
2610,213
2620,169
2630,183
2640,208
2650,188
2660,166
2670,188
2680,144
2690,197
2700,171
2710,182
2720,176
2730,189
2740,173
2750,153
2760,172
2770,189
2780,186
2790,189
2800,165
2810,197
2820,160
2830,186
2840,161
2850,198
2860,161
2870,219
2880,160
2890,193
2900,161
2910,204
2920,144
2930,208
2940,157
2950,217
2960,160
2970,208
2980,113
2990,184
3000,175
3010,183
3020,183
3030,183
3040,245
3050,228
3060,149
3070,223
3080,162
3090,225
3100,157
3110,211
3120,157
3130,234
3140,162
3150,234
3160,160
3170,238
3180,161
3190,188
3200,157
3210,218
3220,162
3230,240
3240,160
3250,242
3260,158
3270,227
3280,158
3290,247
3300,150
3310,241
3320,157
3330,246
3340,160
3350,246
3360,176
3370,250
3380,154
3390,251
3400,149
3410,255
3420,159
3430,183
3440,162
3450,254
3460,179
3470,256
3480,155
3490,257
3500,165
3510,256
3520,172
3530,258
3540,160
3550,270
3560,168
3570,257
3580,158
3590,265
3600,165
3610,266
3620,165
3630,255
3640,162
3650,257
3660,169
3670,257
3680,166
3690,257
3700,164
3710,257
3720,164
3730,262
3740,139
3750,256
3760,128
3770,259
3780,162
3790,265
3800,164
3810,258
3820,162
3830,267
3840,153
3850,251
3860,149
3870,258
3880,162
3890,211
3900,161
3910,267
3920,157
3930,269
3940,160
3950,246
3960,156
3970,203
3980,158
3990,183
4000,182
4010,166
4020,180
4030,177
4040,176
4050,265
4060,129
4070,272
4080,145
4090,263
4100,159
4110,272
4120,158
4130,261
4140,112
4150,266
4160,153
4170,253
4180,160
4190,253
4200,160
4210,272
4220,159
4230,272
4240,145
4250,272
4260,160
4270,301
4280,155
4290,272
4300,160
4310,269
4320,174
4330,267
4340,155
4350,267
4360,163
4370,268
4380,161
4390,270
4400,219
4410,271
4420,187
4430,259
4440,154
4450,266
4460,160
4470,258
4480,123
4490,263
4500,160
4510,258
4520,160
4530,256
4540,158
4550,261
4560,156
4570,257
4580,171
4590,256
4600,159
4610,262
4620,168
4630,253
4640,161
4650,267
4660,179
4670,190
4680,180
4690,179
4700,166
4710,250
4720,190
4730,254
4740,159
4750,254
4760,157
4770,258
4780,151
4790,253
4800,157
4810,253
4820,159
4830,298
4840,160
4850,246
4860,160
4870,247
4880,158
4890,250
4900,144
4910,256
4920,156
4930,239
4940,137
4950,255
4960,158
4970,240
4980,158
4990,214
5000,214
5010,224
5020,234
5030,239
5040,240
5050,226
5060,153
5070,230
5080,196
5090,241
5100,155
5110,225
5120,137
5130,227
5140,161
5150,224
5160,157
5170,236
5180,150
5190,228
5200,158
5210,224
5220,118
5230,234
5240,160
5250,223
5260,157
5270,256
5280,176
5290,217
5300,173
5310,165
5320,157
5330,213
5340,161
5350,163
5360,159
5370,176
5380,153
5390,218
5400,129
5410,210
5420,154
5430,191
5440,157
5450,192
5460,159
5470,195
5480,148
5490,193
5500,165
5510,192
5520,166
5530,192
5540,176
5550,189
5560,176
5570,189
5580,176
5590,204
5600,205
5610,189
5620,176
5630,189
5640,176
5650,182
5660,178
5670,182
5680,181
5690,205
5700,177
5710,170
5720,183
5730,125
5740,190
5750,157
5760,170
5770,154
5780,203
5790,142
5800,186
5810,144
5820,206
5830,144
5840,182
5850,144
5860,196
5870,139
5880,165
5890,138
5900,181
5910,143
5920,180
5930,144
5940,156
5950,139
5960,225
5970,144
5980,176
5990,271
6000,272
6010,269
6020,270
6030,272
6040,230
6050,130
6060,176
6070,173
6080,176
6090,171
6100,182
6110,176
6120,176
6130,166
6140,176
6150,177
6160,189
6170,218
6180,189
6190,183
6200,172
6210,184
6220,117
6230,181
6240,154
6250,183
6260,173
6270,182
6280,190
6290,203
6300,174
6310,179
6320,176
6330,188
6340,176
6350,167
6360,176
6370,188
6380,176
6390,180
6400,178
6410,182
6420,178
6430,181
6440,177
6450,183
6460,176
6470,185
6480,176
6490,179
6500,177
6510,193
6520,181
6530,181
6540,176
6550,181
6560,176
6570,207
6580,176
6590,198
6600,192
6610,178
6620,176
6630,260
6640,178
6650,179
6660,159
6670,177
6680,181
6690,176
6700,179
6710,176
6720,176
6730,177
6740,178
6750,175
6760,159
6770,176
6780,177
6790,177
6800,176
6810,176
6820,178
6830,176
6840,176
6850,176
6860,178
6870,177
6880,179
6890,180
6900,176
6910,176
6920,176
6930,161
6940,175
6950,175
6960,176
6970,176
6980,157
6990,238
7000,228
7010,229
7020,226
7030,291
7040,221
7050,175
7060,177
7070,167
7080,178
7090,155
7100,145
7110,166
7120,174
7130,174
7140,176
7150,151
7160,181
7170,174
7180,193
7190,167
7200,177
7210,171
7220,176
7230,172
7240,181
7250,173
7260,177
7270,170
7280,182
7290,144
7300,179
7310,181
7320,177
7330,157
7340,176
7350,167
7360,182
7370,170
7380,185
7390,178
7400,184
7410,166
7420,183
7430,165
7440,186
7450,164
7460,182
7470,164
7480,186
7490,165
7500,183
7510,160
7520,187
7530,107
7540,195
7550,154
7560,189
7570,161
7580,194
7590,162
7600,195
7610,160
7620,193
7630,161
7640,279
7650,192
7660,202
7670,224
7680,143
7690,162
7700,208
7710,157
7720,210
7730,166
7740,240
7750,157
7760,215
7770,159
7780,217
7790,156
7800,215
7810,160
7820,224
7830,147
7840,239
7850,158
7860,230
7870,160
7880,240
7890,157
7900,203
7910,158
7920,236
7930,154
7940,247
7950,167
7960,240
7970,163
7980,252
7990,148
8000,154
8010,160
8020,165
8030,133
8040,176
8050,144
8060,240
8070,160
8080,243
8090,156
8100,247
8110,154
8120,198
8130,160
8140,198
8150,177
8160,247
8170,160
8180,250
8190,165
8200,251
8210,165
8220,238
8230,211
8240,253
8250,162
8260,256
8270,165
8280,253
8290,166
8300,273
8310,163
8320,356
8330,163
8340,253
8350,161
8360,258
8370,154
8380,252
8390,169
8400,253
8410,159
8420,256
8430,144
8440,241
8450,159
8460,252
8470,165
8480,256
8490,170
8500,234
8510,166
8520,270
8530,160
8540,253
8550,162
8560,252
8570,157
8580,292
8590,159
8600,254
8610,156
8620,254
8630,158
8640,255
8650,157
8660,256
8670,189
8680,256
8690,161
8700,256
8710,161
8720,238
8730,154
8740,256
8750,158
8760,246
8770,193
8780,258
8790,159
8800,262
8810,155
8820,256
8830,155
8840,258
8850,157
8860,257
8870,155
8880,262
8890,175
8900,253
8910,158
8920,268
8930,158
8940,278
8950,160
8960,262
8970,158
8980,262
8990,173
9000,173
9010,172
9020,190
9030,170
9040,163
9050,156
9060,256
9070,153
9080,229
9090,155
9100,251
9110,156
9120,253
9130,158
9140,195
9150,157
9160,214
9170,121
9180,258
9190,174
9200,240
9210,176
9220,175
9230,176
9240,172
9250,174
9260,176
9270,174
9280,172
9290,157
9300,255
9310,162
9320,245
9330,155
9340,256
9350,155
9360,248
9370,156
9380,251
9390,157
9400,247
9410,165
9420,251
9430,176
9440,195
9450,158
9460,299
9470,160
9480,245
9490,176
9500,245
9510,158
9520,245
9530,161
9540,251
9550,101
9560,275
9570,176
9580,240
9590,180
9600,241
9610,155
9620,240
9630,162
9640,241
9650,159
9660,251
9670,158
9680,235
9690,144
9700,240
9710,122
9720,305
9730,156
9740,231
9750,157
9760,240
9770,156
9780,233
9790,172
9800,253
9810,158
9820,241
9830,112
9840,230
9850,156
9860,272
9870,143
9880,219
9890,118
9900,225
9910,157
9920,227
9930,144
9940,239
9950,162
9960,224
9970,145
9980,225
9990,164
10000,159
10010,157
10020,154
10030,136
10040,157
10050,155
10060,221
10070,144
10080,213
10090,123
10100,217
10110,177
10120,214
10130,179
10140,213
10150,155
10160,208
10170,172
10180,208
10190,154
10200,208
10210,155
10220,209
10230,171
10240,208
10250,156
10260,176
10270,155
10280,155
10290,150
10300,176
10310,137
10320,207
10330,189
10340,178
10350,160
10360,193
10370,152
10380,216
10390,150
10400,185
10410,163
10420,192
10430,160
10440,106
10450,169
10460,176
10470,176
10480,189
10490,173
10500,192
10510,171
10520,195
10530,175
10540,182
10550,181
10560,191
10570,165
10580,176
10590,180
10600,194
10610,176
10620,173
10630,176
10640,171
10650,178
10660,157
10670,177
10680,182
10690,177
10700,263
10710,208
10720,157
10730,195
10740,158
10750,144
10760,96
10770,175
10780,164
10790,189
10800,133
10810,173
10820,142
10830,192
10840,138
10850,179
10860,140
10870,176
10880,137
10890,244
10900,132
10910,176
10920,141
10930,181
10940,137
10950,167
10960,139
10970,176
10980,186
10990,129
11000,160
11010,151
11020,144
11030,146
11040,149
11050,184
11060,102
11070,159
11080,163
11090,175
11100,175
11110,176
11120,214
11130,180
11140,236
11150,192
11160,112
11170,176
11180,173
11190,176
11200,176
11210,175
11220,177
11230,171
11240,157
11250,165
11260,187
11270,176
11280,186
11290,123
11300,184
11310,174
11320,171
11330,161
11340,173
11350,166
11360,213
11370,173
11380,182
11390,192
11400,177
11410,138
11420,180
11430,174
11440,176
11450,114
11460,177
11470,176
11480,177
11490,176
11500,183
11510,176
11520,179
11530,181
11540,178
11550,162
11560,179
11570,181
11580,176
11590,175
11600,176
11610,160
11620,176
11630,176
11640,176
11650,163
11660,192
11670,174
11680,175
11690,176
11700,177
11710,177
11720,177
11730,162
11740,178
11750,177
11760,177
11770,175
11780,176
11790,177
11800,176
11810,176
11820,175
11830,163
11840,171
11850,176
11860,176
11870,176
11880,176
11890,176
11900,176
11910,192
11920,176
11930,176
11940,176
11950,176
11960,176
11970,191
11980,190
11990,160
12000,121
12010,160
12020,153
12030,153
12040,153
12050,176
12060,173
12070,175
12080,173
12090,176
12100,170
12110,176
12120,183
12130,176
12140,167
12150,178
12160,176
12170,178
12180,183
12190,178
12200,144
12210,176
12220,171
12230,175
12240,171
12250,176
12260,167
12270,155
12280,176
12290,175
12300,165
12310,177
12320,174
12330,178
12340,165
12350,177
12360,169
12370,187
12380,169
12390,176
12400,170
12410,176
12420,130
12430,191
12440,167
12450,178
12460,165
12470,182
12480,171
12490,165
12500,170
12510,176
12520,144
12530,180
12540,139
12550,177
12560,161
12570,187
12580,159
12590,230
12600,162
12610,185
12620,161
12630,192
12640,144
12650,188
12660,159
12670,193
12680,159
12690,198
12700,160
12710,199
12720,158
12730,202
12740,160
12750,183
12760,160
12770,205
12780,153
12790,209
12800,154
12810,221
12820,160
12830,267
12840,159
12850,217
12860,148
12870,192
12880,155
12890,218
12900,157
12910,222
12920,159
12930,237
12940,119
12950,226
12960,160
12970,231
12980,160
12990,179
13000,177
13010,162
13020,176
13030,169
13040,171
13050,205
13060,157
13070,188
13080,157
13090,237
13100,159
13110,240
13120,158
13130,240
13140,162
13150,256
13160,160
13170,242
13180,163
13190,247
13200,162
13210,247
13220,160
13230,245
13240,161
13250,247
13260,164
13270,248
13280,169
13290,249
13300,161
13310,255
13320,162
13330,250
13340,163
13350,253
13360,160
13370,251
13380,160
13390,160
13400,163
13410,155
13420,153
13430,252
13440,113
13450,251
13460,163
13470,241
13480,166
13490,267
13500,154
13510,250
13520,160
13530,272
13540,160
13550,251
13560,163
13570,266
13580,179
13590,254
13600,88
13610,253
13620,160
13630,251
13640,160
13650,257
13660,166
13670,241
13680,160
13690,257
13700,153
13710,266
13720,154
13730,241
13740,156
13750,259
13760,124
13770,259
13780,159
13790,289
13800,162
13810,259
13820,159
13830,266
13840,143
13850,265
13860,155
13870,263
13880,155
13890,352
13900,155
13910,268
13920,151
13930,269
13940,151
13950,270
13960,161
13970,256
13980,155
13990,179
14000,153
14010,176
14020,178
14030,166
14040,176
14050,261
14060,157
14070,290
14080,150
14090,258
14100,149
14110,257
14120,170
14130,257
14140,158
14150,256
14160,158
14170,257
14180,159
14190,256
14200,98
14210,256
14220,139
14230,251
14240,154
14250,253
14260,155
14270,253
14280,160
14290,249
14300,159
14310,238
14320,158
14330,249
14340,157
14350,247
14360,158
14370,240
14380,164
14390,240
14400,156
14410,247
14420,144
14430,243
14440,157
14450,245
14460,158
14470,245
14480,205
14490,241
14500,160
14510,228
14520,151
14530,241
14540,142
14550,240
14560,149
14570,214
14580,182
14590,240
14600,169
14610,240
14620,151
14630,278
14640,158
14650,241
14660,158
14670,229
14680,155
14690,231
14700,160
14710,224
14720,174
14730,234
14740,155
14750,226
14760,159
14770,224
14780,171
14790,223
14800,152
14810,221
14820,155
14830,212
14840,157
14850,222
14860,153
14870,229
14880,165
14890,233
14900,158
14910,221
14920,155
14930,211
14940,205
14950,221
14960,176
14970,210
14980,155
14990,227
15000,240
15010,153
15020,241
15030,264
15040,247
15050,210
15060,117
15070,207
15080,188
15090,171
15100,159
15110,177
15120,147
15130,183
15140,195
15150,263
15160,160
15170,190
15180,144
15190,188
15200,166
15210,179
15220,171
15230,201
15240,200
15250,170
15260,174
15270,187
15280,174
15290,202
15300,176
15310,182
15320,176
15330,182
15340,176
15350,174
15360,177
15370,164
15380,180
15390,176
15400,183
15410,165
15420,180
15430,176
15440,256
15450,156
15460,182
15470,145
15480,190
15490,144
15500,179
15510,144
15520,176
15530,155
15540,133
15550,94
15560,155
15570,130
15580,173
15590,130
15600,176
15610,138
15620,177
15630,141
15640,173
15650,144
15660,176
15670,170
15680,177
15690,151
15700,176
15710,162
15720,176
15730,160
15740,234
15750,170
15760,176
15770,173
15780,176
15790,176
15800,208
15810,178
15820,177
15830,177
15840,175
15850,167
15860,176
15870,177
15880,154
15890,176
15900,174
15910,177
15920,171
15930,225
15940,176
15950,180
15960,176
15970,181
15980,176
15990,256
16000,257
16010,258
16020,250
16030,263
16040,227
16050,168
16060,100
16070,178
16080,148
16090,179
16100,167
16110,197
16120,176
16130,194
16140,176
16150,177
16160,159
16170,146
16180,170
16190,177
16200,174
16210,178
16220,174
16230,177
16240,176
16250,215
16260,212
16270,179
16280,181
16290,146
16300,176
16310,161
16320,176
16330,177
16340,174
16350,186
16360,181
16370,185
16380,176
16390,185
16400,176
16410,172
16420,175
16430,173
16440,176
16450,175
16460,176
16470,189
16480,175
16490,176
16500,176
16510,173
16520,178
16530,173
16540,176
16550,150
16560,176
16570,169
16580,171
16590,184
16600,176
16610,169
16620,176
16630,163
16640,177
16650,153
16660,177
16670,169
16680,176
16690,169
16700,142
16710,172
16720,176
16730,168
16740,185
16750,170
16760,176
16770,170
16780,176
16790,166
16800,186
16810,160
16820,176
16830,165
16840,176
16850,165
16860,183
16870,160
16880,192
16890,163
16900,184
16910,161
16920,185
16930,162
16940,188
16950,160
16960,171
16970,160
16980,188
16990,187
17000,186
17010,178
17020,224
17030,170
17040,145
17050,158
17060,205
17070,165
17080,207
17090,159
17100,208
17110,144
17120,209
17130,163
17140,218
17150,160
17160,219
17170,161
17180,219
17190,155
17200,226
17210,176
17220,259
17230,156
17240,229
17250,156
17260,228
17270,155
17280,237
17290,156
17300,237
17310,156
17320,241
17330,157
17340,243
17350,169
17360,242
17370,161
17380,205
17390,160
17400,244
17410,177
17420,257
17430,162
17440,247
17450,159
17460,246
17470,171
17480,237
17490,158
17500,158
17510,171
17520,157
17530,154
17540,245
17550,163
17560,253
17570,161
17580,251
17590,204
17600,251
17610,207
17620,249
17630,161
17640,257
17650,250
17660,243
17670,160
17680,251
17690,144
17700,253
17710,160
17720,252
17730,141
17740,253
17750,126
17760,258
17770,176
17780,256
17790,162
17800,253
17810,106
17820,257
17830,153
17840,260
17850,154
17860,257
17870,160
17880,256
17890,157
17900,271
17910,158
17920,259
17930,158
17940,264
17950,144
17960,250
17970,151
17980,265
17990,177
18000,176
18010,169
18020,175
18030,171
18040,170
18050,166
18060,250
18070,155
18080,262
18090,158
18100,263
18110,165
18120,256
18130,151
18140,256
18150,153
18160,272
18170,154
18180,262
18190,167
18200,259
18210,155
18220,258
18230,156
18240,246
18250,162
18260,263
18270,157
18280,251
18290,165
18300,220
18310,161
18320,251
18330,129
18340,249
18350,157
18360,250
18370,176
18380,246
18390,157
18400,254
18410,157
18420,243
18430,153
18440,245
18450,161
18460,243
18470,158
18480,245
18490,180
18500,246
18510,159
18520,244
18530,157
18540,248
18550,158
18560,240
18570,158
18580,273
18590,156
18600,240
18610,158
18620,242
18630,154
18640,230
18650,155
18660,231
18670,160
18680,238
18690,154
18700,251
18710,157
18720,225
18730,158
18740,227
18750,161
18760,219
18770,144
18780,219
18790,158
18800,222
18810,197
18820,218
18830,159
18840,214
18850,151
18860,218
18870,156
18880,171
18890,157
18900,218
18910,158
18920,210
18930,160
18940,141
18950,159
18960,177
18970,144
18980,183
18990,166
19000,160
19010,169
19020,160
19030,162
19040,162
19050,173
19060,188
19070,165
19080,175
19090,202
19100,181
19110,176
19120,178
19130,154
19140,177
19150,177
19160,181
19170,177
19180,176
19190,176
19200,171
19210,182
19220,101
19230,183
19240,155
19250,182
19260,150
19270,182
19280,144
19290,178
19300,144
19310,181
19320,140
19330,178
19340,133
19350,177
19360,128
19370,187
19380,131
19390,177
19400,128
19410,226
19420,143
19430,176
19440,152
19450,185
19460,163
19470,176
19480,164
19490,176
19500,171
19510,176
19520,176
19530,176
19540,175
19550,176
19560,186
19570,189
19580,175
19590,174
19600,179
19610,174
19620,180
19630,176
19640,176
19650,141
19660,222
19670,175
19680,177
19690,192
19700,177
19710,175
19720,176
19730,174
19740,180
19750,176
19760,181
19770,176
19780,177
19790,177
19800,181
19810,177
19820,179
19830,176
19840,177
19850,175
19860,177
19870,176
19880,176
19890,176
19900,177
19910,176
19920,174
19930,160
19940,176
19950,176
19960,176
19970,176
19980,176
19990,160
20000,146
20010,151
20020,154
20030,153
20040,151
20050,176
20060,175
20070,176
20080,171
20090,176
20100,175
20110,176
20120,175
20130,178
20140,176
20150,176
20160,175
20170,176
20180,175
20190,176
20200,175
20210,178
20220,176
20230,176
20240,174
20250,176
20260,169
20270,176
20280,169
20290,175
20300,183
20310,179
20320,135
20330,174
20340,154
20350,178
20360,173
20370,176
20380,209
20390,172
20400,170
20410,163
20420,161
20430,180
20440,161
20450,187
20460,161
20470,192
20480,160
20490,192
20500,163
20510,196
20520,160
20530,190
20540,158
20550,199
20560,161
20570,203
20580,159
20590,208
20600,159
20610,208
20620,159
20630,213
20640,160
20650,215
20660,155
20670,215
20680,160
20690,226
20700,156
20710,229
20720,156
20730,231
20740,154
20750,234
20760,159
20770,240
20780,149
20790,240
20800,157
20810,240
20820,160
20830,241
20840,163
20850,247
20860,160
20870,246
20880,171
20890,253
20900,181
20910,247
20920,161
20930,252
20940,168
20950,253
20960,162
20970,251
20980,159
20990,176
21000,176
21010,175
21020,172
21030,167
21040,170
21050,256
21060,161
21070,252
21080,162
21090,253
21100,165
21110,254
21120,167
21130,256
21140,159
21150,253
21160,160
21170,256
21180,157
21190,256
21200,155
21210,256
21220,161
21230,261
21240,159
21250,257
21260,160
21270,264
21280,155
21290,262
21300,156
21310,259
21320,156
21330,263
21340,157
21350,262
21360,157
21370,265
21380,157
21390,276
21400,157
21410,267
21420,153
21430,266
21440,155
21450,271
21460,155
21470,271
21480,156
21490,263
21500,157
21510,269
21520,157
21530,263
21540,161
21550,259
21560,155
21570,263
21580,176
21590,176
21600,157
21610,176
21620,150
21630,256
21640,154
21650,256
21660,155
21670,254
21680,157
21690,254
21700,158
21710,252
21720,157
21730,245
21740,160
21750,267
21760,161
21770,243
21780,169
21790,245
21800,160
21810,245
21820,159
21830,243
21840,159
21850,241
21860,158
21870,240
21880,155
21890,240
21900,157
21910,237
21920,157
21930,237
21940,151
21950,233
21960,158
21970,225
21980,155
21990,217
22000,224
22010,241
22020,236
22030,237
22040,239
22050,223
22060,154
22070,216
22080,158
22090,213
22100,155
22110,219
22120,156
22130,222
22140,156
22150,217
22160,153
22170,213
22180,157
22190,213
22200,158
22210,174
22220,160
22230,175
22240,157
22250,183
22260,155
22270,179
22280,156
22290,187
22300,144
22310,192
22320,167
22330,186
22340,167
22350,191
22360,166
22370,183
22380,176
22390,179
22400,176
22410,175
22420,178
22430,176
22440,179
22450,172
22460,176
22470,160
22480,177
22490,149
22500,181
22510,145
22520,181
22530,144
22540,185
22550,134
22560,179
22570,135
22580,178
22590,139
22600,178
22610,132
22620,171
22630,145
22640,176
22650,144
22660,176
22670,160
22680,176
22690,165
22700,176
22710,173
22720,175
22730,176
22740,176
22750,175
22760,176
22770,182
22780,176
22790,175
22800,176
22810,181
22820,176
22830,180
22840,175
22850,177
22860,176
22870,176
22880,176
22890,179
22900,175
22910,176
22920,176
22930,181
22940,176
22950,178
22960,174
22970,179
22980,175
22990,208
23000,266
23010,245
23020,240
23030,240
23040,240
23050,176
23060,177
23070,176
23080,176
23090,174
23100,176
23110,176
23120,175
23130,176
23140,175
23150,178
23160,176
23170,174
23180,176
23190,173
23200,173
23210,176
23220,176
23230,143
23240,177
23250,193
23260,146
23270,175
23280,175
23290,161
23300,169
23310,175
23320,176
23330,176
23340,176
23350,173
23360,176
23370,126
23380,176
23390,167
23400,196
23410,163
23420,178
23430,163
23440,181
23450,212
23460,182
23470,169
23480,163
23490,168
23500,176
23510,166
23520,164
23530,167
23540,186
23550,151
23560,179
23570,164
23580,192
23590,164
23600,192
23610,123
23620,192
23630,166
23640,206
23650,160
23660,192
23670,158
23680,204
23690,158
23700,201
23710,158
23720,224
23730,157
23740,207
23750,162
23760,219
23770,158
23780,226
23790,151
23800,234
23810,161
23820,234
23830,154
23840,236
23850,155
23860,240
23870,160
23880,243
23890,160
23900,253
23910,156
23920,245
23930,157
23940,247
23950,152
23960,249
23970,163
23980,249
23990,177
24000,178
24010,176
24020,179
24030,178
24040,176
24050,188
24060,253
24070,163
24080,253
24090,160
24100,254
24110,181
24120,257
24130,162
24140,249
24150,157
24160,263
24170,169
24180,256
24190,140
24200,251
24210,175
24220,259
24230,174
24240,257
24250,139
24260,259
24270,174
24280,256
24290,155
24300,263
24310,159
24320,259
24330,156
24340,259
24350,153
24360,269
24370,238
24380,272
24390,158
24400,271
24410,154
24420,264
24430,158
24440,269
24450,154
24460,265
24470,154
24480,267
24490,144
24500,267
24510,156
24520,263
24530,153
24540,263
24550,153
24560,273
24570,155
24580,259
24590,156
24600,261
24610,159
24620,245
24630,206
24640,257
24650,155
24660,256
24670,148
24680,253
24690,164
24700,256
24710,154
24720,250
24730,151
24740,203
24750,145
24760,271
24770,195
24780,246
24790,157
24800,256
24810,159
24820,241
24830,162
24840,256
24850,158
24860,240
24870,138
24880,223
24890,156
24900,241
24910,147
24920,239
24930,149
24940,226
24950,158
24960,227
24970,167
24980,234
24990,176
25000,172
25010,158
25020,162
25030,158
25040,157
25050,170
25060,218
25070,155
25080,218
25090,160
25100,215
25110,157
25120,209
25130,155
25140,212
25150,150
25160,214
25170,155
25180,173
25190,152
25200,208
25210,155
25220,178
25230,144
25240,183
25250,153
25260,199
25270,151
25280,202
25290,173
25300,189
25310,186
25320,191
25330,167
25340,165
25350,176
25360,176
25370,139
25380,165
25390,179
25400,171
25410,183
25420,167
25430,202
25440,130
25450,167
25460,144
25470,175
25480,141
25490,150
25500,155
25510,178
25520,133
25530,174
25540,119
25550,157
25560,160
25570,176
25580,128
25590,176
25600,165
25610,176
25620,157
25630,176
25640,141
25650,180
25660,161
25670,71
25680,175
25690,174
25700,160
25710,171
25720,207
25730,176
25740,207
25750,166
25760,180
25770,134
25780,187
25790,162
25800,181
25810,177
25820,176
25830,175
25840,248
25850,176
25860,191
25870,174
25880,183
25890,175
25900,192
25910,178
25920,177
25930,197
25940,176
25950,190
25960,176
25970,176
25980,182
25990,158
26000,151
26010,163
26020,147
26030,159
26040,177
26050,176
26060,176
26070,176
26080,170
26090,194
26100,127
26110,161
26120,177
26130,194
26140,176
26150,176
26160,214
26170,180
26180,174
26190,173
26200,173
26210,171
26220,198
26230,139
26240,169
26250,176
26260,165
26270,160
26280,179
26290,179
26300,146
26310,176
26320,170
26330,122
26340,147
26350,256
26360,207
26370,170
26380,170
26390,178
26400,192
26410,187
26420,155
26430,170
26440,160
26450,205
26460,160
26470,202
26480,183
26490,187
26500,154
26510,196
26520,162
26530,150
26540,158
26550,192
26560,162
26570,209
26580,161
26590,178
26600,153
26610,206
26620,161
26630,239
26640,156
26650,231
26660,144
26670,211
26680,162
26690,227
26700,167
26710,237
26720,160
26730,208
26740,156
26750,243
26760,144
26770,263
26780,158
26790,249
26800,157
26810,231
26820,161
26830,241
26840,162
26850,251
26860,161
26870,250
26880,208
26890,254
26900,173
26910,247
26920,170
26930,251
26940,161
26950,254
26960,160
26970,256
26980,163
26990,179
27000,183
27010,173
27020,175
27030,177
27040,175
27050,253
27060,154
27070,254
27080,158
27090,272
27100,157
27110,221
27120,158
27130,261
27140,111
27150,263
27160,160
27170,259
27180,155
27190,272
27200,158
27210,269
27220,153
27230,267
27240,157
27250,266
27260,157
27270,272
27280,156
27290,284
27300,157
27310,267
27320,157
27330,267
27340,153
27350,262
27360,160
27370,266
27380,157
27390,261
27400,158
27410,262
27420,160
27430,262
27440,161
27450,257
27460,159
27470,255
27480,181
27490,256
27500,158
27510,256
27520,160
27530,261
27540,160
27550,252
27560,158
27570,253
27580,160
27590,250
27600,160
27610,252
27620,159
27630,270
27640,162
27650,243
27660,154
27670,243
27680,159
27690,242
27700,157
27710,241
27720,182
27730,245
27740,160
27750,223
27760,147
27770,226
27780,159
27790,225
27800,159
27810,192
27820,145
27830,226
27840,158
27850,224
27860,159
27870,219
27880,112
27890,220
27900,157
27910,214
27920,156
27930,217
27940,145
27950,214
27960,161
27970,239
27980,157
27990,261
28000,253
28010,252
28020,258
28030,293
28040,258
28050,191
28060,157
28070,219
28080,164
28090,187
28100,176
28110,189
28120,175
28130,189
28140,175
28150,176
28160,271
28170,176
28180,176
28190,175
28200,181
28210,163
28220,179
28230,155
28240,182
28250,145
28260,176
28270,141
28280,176
28290,137
28300,182
28310,135
28320,185
28330,124
28340,178
28350,135
28360,223
28370,135
28380,158
28390,152
28400,176
28410,154
28420,177
28430,183
28440,176
28450,166
28460,176
28470,177
28480,176
28490,176
28500,174
28510,187
28520,155
28530,193
28540,167
28550,177
28560,176
28570,179
28580,176
28590,176
28600,176
28610,112
28620,209
28630,199
28640,177
28650,183
28660,176
28670,179
28680,165
28690,179
28700,176
28710,180
28720,194
28730,144
28740,176
28750,177
28760,176
28770,177
28780,176
28790,144
28800,176
28810,176
28820,176
28830,173
28840,176
28850,176
28860,176
28870,176
28880,178
28890,174
28900,176
28910,176
28920,174
28930,168
28940,176
28950,188
28960,177
28970,171
28980,176
28990,224
29000,223
29010,224
29020,250
29030,213
29040,214
29050,169
29060,141
29070,172
29080,179
29090,175
29100,193
29110,170
29120,173
29130,168
29140,178
29150,167
29160,194
29170,167
29180,178
29190,168
29200,174
29210,170
29220,202
29230,158
29240,190
29250,160
29260,177
29270,163
29280,202
29290,158
29300,195
29310,161
29320,202
29330,160
29340,217
29350,155
29360,213
29370,157
29380,215
29390,158
29400,217
29410,158
29420,202
29430,161
29440,253
29450,160
29460,237
29470,166
29480,240
29490,160
29500,240
29510,154
29520,247
29530,153
29540,244
29550,183
29560,245
29570,163
29580,251
29590,173
29600,245
29610,166
29620,251
29630,160
29640,256
29650,155
29660,272
29670,162
29680,256
29690,161
29700,253
29710,128
29720,253
29730,163
29740,253
29750,166
29760,255
29770,162
29780,173
29790,175
29800,213
29810,174
29820,162
29830,177
29840,252
29850,193
29860,239
29870,155
29880,257
29890,159
29900,241
29910,161
29920,260
29930,160
29940,261
29950,158
29960,266
29970,207
29980,266
29990,177
30000,96
30010,175
30020,171
30030,167
30040,170
30050,150
30060,256
30070,158
30080,272
30090,155
30100,267
30110,154
30120,240
30130,139
30140,261
30150,159
30160,256
30170,144
30180,259
30190,158
30200,265
30210,159
30220,263
30230,158
30240,258
30250,163
30260,256
30270,155
30280,258
30290,155
30300,250
30310,98
30320,291
30330,158
30340,237
30350,161
30360,249
30370,91
30380,253
30390,161
30400,245
30410,144
30420,246
30430,159
30440,246
30450,161
30460,240
30470,156
30480,238
30490,167
30500,241
30510,160
30520,240
30530,162
30540,256
30550,164
30560,155
30570,146
30580,236
30590,138
30600,262
30610,158
30620,229
30630,171
30640,225
30650,159
30660,228
30670,160
30680,224
30690,175
30700,218
30710,154
30720,233
30730,159
30740,218
30750,159
30760,216
30770,142
30780,211
30790,163
30800,107
30810,160
30820,174
30830,160
30840,178
30850,144
30860,192
30870,167
30880,207
30890,160
30900,201
30910,170
30920,186
30930,173
30940,192
30950,176
30960,181
30970,107
30980,176
30990,222
31000,166
31010,160
31020,171
31030,165
31040,151
31050,181
31060,146
31070,182
31080,146
31090,179
31100,138
31110,191
31120,135
31130,182
31140,131
31150,180
31160,142
31170,179
31180,145
31190,183
31200,142
31210,198
31220,171
31230,182
31240,115
31250,191
31260,176
31270,176
31280,176
31290,149
31300,179
31310,169
31320,267
31330,176
31340,180
31350,176
31360,172
31370,177
31380,183
31390,163
31400,183
31410,175
31420,182
31430,176
31440,184
31450,176
31460,131
31470,176
31480,180
31490,161
31500,182
31510,176
31520,187
31530,187
31540,169
31550,175
31560,176
31570,146
31580,176
31590,153
31600,182
31610,178
31620,172
31630,177
31640,192
31650,176
31660,176
31670,175
31680,178
31690,176
31700,176
31710,177
31720,176
31730,181
31740,178
31750,177
31760,173
31770,175
31780,176
31790,176
31800,169
31810,176
31820,176
31830,154
31840,176
31850,203
31860,169
31870,189
31880,175
31890,176
31900,169
31910,177
31920,174
31930,177
31940,160
31950,178
31960,172
31970,176
31980,131
31990,160
32000,155
32010,143
32020,162
32030,171
32040,167
32050,208
32060,160
32070,185
32080,159
32090,192
32100,153
32110,195
32120,161
32130,203
32140,157
32150,198
32160,164
32170,206
32180,160
32190,204
32200,160
32210,210
32220,192
32230,219
32240,158
32250,230
32260,160
32270,221
32280,179
32290,231
32300,159
32310,231
32320,159
32330,240
32340,144
32350,243
32360,157
32370,240
32380,160
32390,242
32400,159
32410,245
32420,163
32430,247
32440,172
32450,251
32460,156
32470,250
32480,160
32490,240
32500,164
32510,246
32520,135
32530,256
32540,165
32550,254
32560,158
32570,253
32580,163
32590,293
32600,155
32610,256
32620,158
32630,252
32640,157
32650,254
32660,158
32670,257
32680,160
32690,249
32700,158
32710,256
32720,176
32730,269
32740,153
32750,256
32760,159
32770,256
32780,166
32790,261
32800,154
32810,255
32820,145
32830,262
32840,158
32850,267
32860,158
32870,266
32880,158
32890,260
32900,157
32910,260
32920,159
32930,267
32940,153
32950,262
32960,97
32970,266
32980,154
32990,147
33000,176
33010,177
33020,176
33030,176
33040,175
33050,261
33060,170
33070,261
33080,119
33090,272
33100,155
33110,258
33120,152
33130,291
33140,158
33150,252
33160,146
33170,272
33180,151
33190,249
33200,148
33210,253
33220,155
33230,275
33240,154
33250,252
33260,159
33270,251
33280,173
33290,245
33300,155
33310,243
33320,157
33330,243
33340,161
33350,240
33360,157
33370,242
33380,155
33390,240
33400,154
33410,238
33420,158
33430,237
33440,118
33450,234
33460,155
33470,232
33480,155
33490,228
33500,158
33510,229
33520,158
33530,206
33540,154
33550,221
33560,157
33570,223
33580,123
33590,193
33600,157
33610,213
33620,144
33630,213
33640,159
33650,230
33660,149
33670,213
33680,156
33690,213
33700,157
33710,233
33720,151
33730,210
33740,153
33750,212
33760,154
33770,192
33780,155
33790,208
33800,176
33810,192
33820,144
33830,186
33840,158
33850,190
33860,172
33870,162
33880,223
33890,176
33900,144
33910,172
33920,173
33930,178
33940,176
33950,164
33960,187
33970,158
33980,176
33990,256
34000,256
34010,256
34020,266
34030,261
34040,261
34050,98
34060,177
34070,142
34080,176
34090,160
34100,179
34110,132
34120,164
34130,139
34140,167
34150,151
34160,175
34170,144
34180,176
34190,155
34200,176
34210,165
34220,176
34230,144
34240,176
34250,179
34260,176
34270,218
34280,179
34290,176
34300,176
34310,180
34320,189
34330,178
34340,166
34350,181
34360,176
34370,183
34380,175
34390,223
34400,176
34410,178
34420,181
34430,174
34440,174
34450,178
34460,171
34470,176
34480,176
34490,181
34500,175
34510,176
34520,176
34530,177
34540,176
34550,143
34560,162
34570,176
34580,176
34590,179
34600,176
34610,180
34620,174
34630,181
34640,135
34650,176
34660,141
34670,177
34680,176
34690,176
34700,176
34710,176
34720,179
34730,154
34740,176
34750,162
34760,176
34770,175
34780,176
34790,175
34800,176
34810,171
34820,178
34830,160
34840,177
34850,176
34860,176
34870,167
34880,176
34890,169
34900,176
34910,135
34920,177
34930,171
34940,179
34950,183
34960,181
34970,175
34980,176
34990,218
35000,212
35010,229
35020,206
35030,204
35040,167
35050,177
35060,185
35070,165
35080,181
35090,158
35100,186
35110,164
35120,171
35130,159
35140,189
35150,206
35160,183
35170,162
35180,193
35190,159
35200,202
35210,160
35220,202
35230,161
35240,206
35250,162
35260,210
35270,169
35280,237
35290,176
35300,216
35310,157
35320,222
35330,169
35340,225
35350,159
35360,232
35370,161
35380,267
35390,159
35400,240
35410,157
35420,240
35430,161
35440,241
35450,163
35460,244
35470,159
35480,243
35490,224
35500,252
35510,161
35520,240
35530,160
35540,256
35550,163
35560,258
35570,177
35580,257
35590,160
35600,262
35610,165
35620,270
35630,166
35640,307
35650,166
35660,254
35670,166
35680,255
35690,162
35700,256
35710,167
35720,259
35730,152
35740,257
35750,162
35760,273
35770,144
35780,252
35790,166
35800,259
35810,160
35820,259
35830,161
35840,258
35850,160
35860,246
35870,158
35880,263
35890,161
35900,267
35910,160
35920,266
35930,162
35940,267
35950,159
35960,301
35970,175
35980,275
35990,178
36000,180
36010,163
36020,176
36030,174
36040,174
36050,159
36060,273
36070,154
36080,271
36090,176
36100,270
36110,155
36120,267
36130,181
36140,272
36150,158
36160,288
36170,193
36180,271
36190,160
36200,270
36210,159
36220,307
36230,165
36240,272
36250,164
36260,270
36270,160
36280,271
36290,162
36300,266
36310,161
36320,263
36330,160
36340,260
36350,160
36360,256
36370,126
36380,256
36390,162
36400,267
36410,183
36420,256
36430,161
36440,250
36450,158
36460,271
36470,159
36480,256
36490,166
36500,251
36510,151
36520,248
36530,159
36540,255
36550,161
36560,250
36570,159
36580,245
36590,160
36600,240
36610,158
36620,243
36630,162
36640,245
36650,163
36660,240
36670,157
36680,238
36690,138
36700,256
36710,163
36720,235
36730,144
36740,229
36750,159
36760,231
36770,159
36780,228
36790,159
36800,226
36810,177
36820,258
36830,155
36840,219
36850,162
36860,225
36870,162
36880,221
36890,157
36900,225
36910,160
36920,215
36930,160
36940,216
36950,160
36960,216
36970,160
36980,212
36990,205
37000,160
37010,158
37020,163
37030,162
37040,161
37050,156
37060,175
37070,157
37080,173
37090,159
37100,188
37110,156
37120,178
37130,164
37140,187
37150,166
37160,166
37170,128
37180,186
37190,176
37200,144
37210,174
37220,182
37230,173
37240,179
37250,174
37260,177
37270,178
37280,169
37290,146
37300,151
37310,177
37320,151
37330,161
37340,144
37350,179
37360,128
37370,177
37380,142
37390,180
37400,140
37410,176
37420,133
37430,176
37440,131
37450,176
37460,134
37470,177
37480,138
37490,176
37500,146
37510,177
37520,144
37530,147
37540,144
37550,176
37560,173
37570,175
37580,144
37590,151
37600,173
37610,176
37620,176
37630,174
37640,173
37650,164
37660,182
37670,174
37680,177
37690,174
37700,191
37710,173
37720,184
37730,161
37740,178
37750,178
37760,185
37770,180
37780,179
37790,176
37800,177
37810,175
37820,177
37830,167
37840,182
37850,177
37860,179
37870,110
37880,181
37890,175
37900,180
37910,173
37920,182
37930,171
37940,117
37950,175
37960,176
37970,246
37980,171
37990,176
38000,175
38010,176
38020,178
38030,176
38040,178
38050,170
38060,176
38070,179
38080,174
38090,177
38100,175
38110,158
38120,178
38130,176
38140,176
38150,175
38160,175
38170,171
38180,176
38190,176
38200,176
38210,176
38220,158
38230,176
38240,175
38250,174
38260,192
38270,173
38280,174
38290,195
38300,176
38310,175
38320,202
38330,171
38340,174
38350,175
38360,166
38370,209
38380,171
38390,174
38400,172
38410,192
38420,171
38430,174
38440,197
38450,176
38460,167
38470,176
38480,200
38490,176
38500,170
38510,176
38520,170
38530,197
38540,175
38550,183
38560,170
38570,176
38580,181
38590,176
38600,167
38610,176
38620,169
38630,163
38640,161
38650,182
38660,161
38670,182
38680,162
38690,183
38700,169
38710,187
38720,162
38730,186
38740,161
38750,192
38760,161
38770,154
38780,163
38790,157
38800,143
38810,199
38820,161
38830,203
38840,170
38850,208
38860,157
38870,208
38880,162
38890,211
38900,160
38910,215
38920,158
38930,220
38940,170
38950,223
38960,162
38970,223
38980,158
38990,195
39000,155
39010,229
39020,223
39030,227
39040,240
39050,243
39060,234
39070,236
39080,173
39090,240
39100,155
39110,207
39120,155
39130,240
39140,144
39150,251
39160,157
39170,240
39180,144
39190,243
39200,161
39210,250
39220,157
39230,247
39240,170
39250,250
39260,159
39270,245
39280,157
39290,274
39300,161
39310,251
39320,162
39330,254
39340,191
39350,251
39360,167
39370,238
39380,167
39390,246
39400,159
39410,269
39420,175
39430,256
39440,149
39450,257
39460,144
39470,251
39480,163
39490,258
39500,161
39510,240
39520,131
39530,241
39540,161
39550,254
39560,159
39570,256
39580,159
39590,240
39600,208
39610,256
39620,162
39630,258
39640,158
39650,266
39660,154
39670,258
39680,159
39690,268
39700,155
39710,258
39720,156
39730,268
39740,185
39750,263
39760,159
39770,266
39780,160
39790,267
39800,172
39810,267
39820,150
39830,278
39840,157
39850,272
39860,172
39870,268
39880,174
39890,266
39900,145
39910,262
39920,163
39930,260
39940,155
39950,270
39960,165
39970,270
39980,131
39990,267
40000,158
40010,271
40020,277
40030,256
40040,274
40050,358
40060,293
40070,261
40080,158
40090,264
40100,159
40110,251
40120,155
40130,266
40140,121
40150,227
40160,165
40170,245
40180,162
40190,256
40200,160
40210,256
40220,141
40230,272
40240,170
40250,257
40260,175
40270,202
40280,158
40290,275
40300,87
40310,255
40320,154
40330,254
40340,161
40350,252
40360,155
40370,240
40380,160
40390,247
40400,154
40410,247
40420,153
40430,246
40440,158
40450,242
40460,158
40470,244
40480,166
40490,238
40500,159
40510,241
40520,139
40530,247
40540,155
40550,240
40560,167
40570,244
40580,157
40590,240
40600,147
40610,239
40620,160
40630,240
40640,153
40650,233
40660,157
40670,235
40680,161
40690,235
40700,141
40710,247
40720,153
40730,242
40740,155
40750,231
40760,155
40770,230
40780,139
40790,223
40800,154
40810,256
40820,156
40830,224
40840,156
40850,236
40860,157
40870,196
40880,159
40890,221
40900,158
40910,251
40920,153
40930,245
40940,192
40950,217
40960,156
40970,208
40980,157
40990,218
41000,158
41010,215
41020,224
41030,226
41040,224
41050,222
41060,238
41070,205
41080,158
41090,191
41100,157
41110,167
41120,133
41130,231
41140,160
41150,178
41160,160
41170,226
41180,167
41190,178
41200,161
41210,191
41220,161
41230,183
41240,179
41250,221
41260,176
41270,179
41280,141
41290,192
41300,175
41310,160
41320,176
41330,191
41340,149
41350,181
41360,187
41370,177
41380,196
41390,181
41400,177
41410,163
41420,183
41430,159
41440,170
41450,133
41460,188
41470,144
41480,238
41490,159
41500,178
41510,122
41520,183
41530,122
41540,183
41550,142
41560,181
41570,135
41580,231
41590,144
41600,180
41610,137
41620,178
41630,144
41640,187
41650,144
41660,167
41670,147
41680,185
41690,159
41700,171
41710,148
41720,183
41730,173
41740,179
41750,176
41760,177
41770,179
41780,183
41790,179
41800,138
41810,180
41820,178
41830,188
41840,202
41850,183
41860,183
41870,189
41880,177
41890,185
41900,171
41910,187
41920,171
41930,192
41940,178
41950,187
41960,182
41970,190
41980,191
41990,189
42000,182
42010,191
42020,188
42030,192
42040,199
42050,192
42060,189
42070,156
42080,159
42090,159
42100,158
42110,201
42120,208
42130,160
42140,182
42150,193
42160,181
42170,191
42180,165
42190,190
42200,187
42210,192
42220,84
42230,183
42240,183
42250,233
42260,185
42270,191
42280,183
42290,193
42300,187
42310,191
42320,183
42330,187
42340,188
42350,189
42360,189
42370,173
42380,153
42390,188
42400,189
42410,187
42420,183
42430,190
42440,185
42450,183
42460,188
42470,186
42480,186
42490,202
42500,187
42510,177
42520,176
42530,174
42540,187
42550,176
42560,187
42570,184
42580,166
42590,187
42600,184
42610,192
42620,187
42630,195
42640,187
42650,190
42660,192
42670,199
42680,186
42690,185
42700,185
42710,188
42720,176
42730,183
42740,187
42750,181
42760,187
42770,183
42780,189
42790,181
42800,166
42810,183
42820,187
42830,179
42840,187
42850,178
42860,163
42870,181
42880,191
42890,181
42900,187
42910,181
42920,191
42930,171
42940,192
42950,178
42960,183
42970,179
42980,187
42990,185
43000,195
43010,192
43020,177
43030,177
43040,189
43050,177
43060,175
43070,160
43080,192
43090,192
43100,185
43110,176
43120,192
43130,171
43140,198
43150,176
43160,205
43170,174
43180,204
43190,174
43200,195
43210,170
43220,235
43230,174
43240,205
43250,176
43260,212
43270,175
43280,310
43290,145
43300,213
43310,161
43320,215
43330,173
43340,223
43350,171
43360,222
43370,172
43380,228
43390,171
43400,231
43410,146
43420,233
43430,199
43440,251
43450,168
43460,237
43470,175
43480,234
43490,170
43500,240
43510,186
43520,183
43530,169
43540,240
43550,176
43560,239
43570,172
43580,252
43590,171
43600,242
43610,144
43620,256
43630,172
43640,263
43650,171
43660,256
43670,163
43680,251
43690,172
43700,259
43710,176
43720,259
43730,162
43740,258
43750,192
43760,262
43770,182
43780,259
43790,176
43800,262
43810,175
43820,261
43830,176
43840,258
43850,175
43860,263
43870,211
43880,265
43890,176
43900,245
43910,177
43920,272
43930,176
43940,266
43950,178
43960,261
43970,171
43980,274
43990,176
44000,227
44010,173
44020,163
44030,169
44040,175
44050,171
44060,174
44070,158
44080,283
44090,177
44100,259
44110,178
44120,274
44130,171
44140,268
44150,170
44160,321
44170,176
44180,267
44190,171
44200,262
44210,174
44220,309
44230,167
44240,267
44250,173
44260,295
44270,173
44280,251
44290,158
44300,272
44310,169
44320,273
44330,172
44340,272
44350,170
44360,272
44370,175
44380,272
44390,171
44400,275
44410,167
44420,277
44430,164
44440,276
44450,167
44460,284
44470,158
44480,273
44490,171
44500,318
44510,167
44520,256
44530,170
44540,277
44550,169
44560,285
44570,167
44580,259
44590,194
44600,233
44610,166
44620,281
44630,161
44640,281
44650,174
44660,295
44670,174
44680,281
44690,170
44700,281
44710,166
44720,287
44730,128
44740,278
44750,138
44760,280
44770,169
44780,277
44790,128
44800,282
44810,165
44820,275
44830,171
44840,279
44850,170
44860,275
44870,179
44880,281
44890,170
44900,275
44910,170
44920,279
44930,164
44940,275
44950,171
44960,273
44970,176
44980,272
44990,165
45000,300
45010,170
45020,144
45030,150
45040,149
45050,171
45060,162
45070,165
45080,265
45090,166
45100,265
45110,167
45120,271
45130,166
45140,252
45150,175
45160,259
45170,156
45180,265
45190,176
45200,263
45210,173
45220,267
45230,219
45240,263
45250,175
45260,265
45270,171
45280,263
45290,183
45300,262
45310,169
45320,259
45330,167
45340,269
45350,169
45360,259
45370,174
45380,258
45390,169
45400,256
45410,170
45420,256
45430,172
45440,257
45450,128
45460,256
45470,187
45480,253
45490,139
45500,256
45510,171
45520,218
45530,171
45540,250
45550,188
45560,249
45570,161
45580,251
45590,174
45600,250
45610,171
45620,241
45630,176
45640,176
45650,173
45660,241
45670,156
45680,243
45690,171
45700,240
45710,110
45720,253
45730,169
45740,240
45750,173
45760,237
45770,159
45780,251
45790,142
45800,234
45810,169
45820,231
45830,173
45840,236
45850,174
45860,228
45870,165
45880,216
45890,173
45900,235
45910,166
45920,231
45930,169
45940,227
45950,172
45960,243
45970,160
45980,227
45990,176
46000,238
46010,167
46020,160
46030,156
46040,165
46050,176
46060,179
46070,161
46080,144
46090,168
46100,160
46110,170
46120,114
46130,168
46140,151
46150,168
46160,109
46170,244
46180,235
46190,238
46200,199
46210,178
46220,201
46230,168
46240,192
46250,176
46260,203
46270,176
46280,199
46290,176
46300,206
46310,179
46320,199
46330,178
46340,130
46350,183
46360,192
46370,186
46380,183
46390,162
46400,190
46410,190
46420,189
46430,192
46440,194
46450,182
46460,163
46470,192
46480,177
46490,194
46500,167
46510,241
46520,269
46530,176
46540,144
46550,193
46560,161
46570,193
46580,159
46590,207
46600,139
46610,191
46620,154
46630,184
46640,149
46650,208
46660,144
46670,208
46680,145
46690,207
46700,144
46710,192
46720,144
46730,192
46740,151
46750,162
46760,148
46770,192
46780,159
46790,187
46800,182
46810,191
46820,156
46830,189
46840,202
46850,167
46860,176
46870,221
46880,181
46890,187
46900,193
46910,235
46920,176
46930,187
46940,192
46950,187
46960,214
46970,189
46980,193
46990,187
47000,193
47010,187
47020,177
47030,181
47040,182
47050,243
47060,183
47070,179
47080,191
47090,184
47100,192
47110,158
47120,192
47130,182
47140,194
47150,189
47160,234
47170,116
47180,192
47190,185
47200,195
47210,186
47220,191
47230,187
47240,221
47250,187
47260,191
47270,187
47280,196
47290,185
47300,202
47310,185
47320,193
47330,187
47340,196
47350,181
47360,193
47370,191
47380,222
47390,195
47400,192
47410,176
47420,187
47430,186
47440,211
47450,187
47460,192
47470,191
47480,188
47490,182
47500,192
47510,182
47520,190
47530,187
47540,189
47550,188
47560,190
47570,185
47580,188
47590,184
47600,190
47610,189
47620,230
47630,185
47640,190
47650,187
47660,240
47670,186
47680,189
47690,186
47700,186
47710,198
47720,190
47730,189
47740,189
47750,189
47760,185
47770,187
47780,192
47790,186
47800,187
47810,187
47820,188
47830,190
47840,182
47850,187
47860,186
47870,181
47880,188
47890,194
47900,183
47910,144
47920,180
47930,189
47940,176
47950,201
47960,192
47970,187
47980,178
47990,183
48000,181
48010,191
48020,165
48030,176
48040,185
48050,187
48060,165
48070,195
48080,183
48090,191
48100,179
48110,188
48120,178
48130,205
48140,176
48150,185
48160,178
48170,193
48180,178
48190,192
48200,177
48210,195
48220,228
48230,208
48240,177
48250,236
48260,183
48270,193
48280,176
48290,153
48300,176
48310,196
48320,176
48330,189
48340,171
48350,207
48360,181
48370,209
48380,154
48390,206
48400,174
48410,212
48420,171
48430,208
48440,181
48450,177
48460,175
48470,201
48480,176
48490,210
48500,171
48510,197
48520,170
48530,225
48540,195
48550,263
48560,173
48570,230
48580,170
48590,225
48600,175
48610,234
48620,167
48630,240
48640,219
48650,240
48660,171
48670,256
48680,165
48690,227
48700,172
48710,242
48720,183
48730,251
48740,107
48750,254
48760,173
48770,240
48780,173
48790,269
48800,169
48810,270
48820,210
48830,253
48840,177
48850,256
48860,131
48870,259
48880,171
48890,306
48900,175
48910,259
48920,170
48930,263
48940,175
48950,251
48960,174
48970,274
48980,176
48990,288
49000,167
49010,256
49020,240
49030,269
49040,246
49050,267
49060,266
49070,266
49080,175
49090,267
49100,176
49110,266
49120,175
49130,264
49140,176
49150,269
49160,173
49170,263
49180,176
49190,223
49200,177
49210,256
49220,155
49230,267
49240,175
49250,271
49260,174
49270,271
49280,177
49290,250
49300,176
49310,267
49320,173
49330,264
49340,167
49350,221
49360,175
49370,272
49380,171
49390,274
49400,169
49410,228
49420,170
49430,269
49440,170
49450,274
49460,167
49470,293
49480,165
49490,310
49500,144
49510,272
49520,170
49530,278
49540,170
49550,273
49560,173
49570,275
49580,169
49590,292
49600,169
49610,281
49620,167
49630,278
49640,165
49650,282
49660,171
49670,290
49680,171
49690,283
49700,173
49710,297
49720,165
49730,282
49740,167
49750,283
49760,209
49770,281
49780,173
49790,279
49800,167
49810,295
49820,169
49830,278
49840,163
49850,275
49860,119
49870,277
49880,165
49890,281
49900,167
49910,281
49920,167
49930,275
49940,132
49950,265
49960,171
49970,275
49980,144
49990,274
50000,173
50010,274
50020,261
50030,264
50040,272
50050,279
50060,272
50070,270
50080,167
50090,267
50100,169
50110,272
50120,170
50130,256
50140,172
50150,264
50160,171
50170,252
50180,175
50190,279
50200,176
50210,263
50220,171
50230,297
50240,172
50250,265
50260,144
50270,147
50280,204
50290,163
50300,166
50310,346
50320,164
50330,264
50340,173
50350,257
50360,183
50370,255
50380,170
50390,254
50400,167
50410,249
50420,170
50430,251
50440,173
50450,247
50460,172
50470,263
50480,167
50490,247
50500,173
50510,228
50520,171
50530,242
50540,171
50550,242
50560,174
50570,243
50580,167
50590,241
50600,174
50610,240
50620,173
50630,240
50640,170
50650,240
50660,172
50670,237
50680,171
50690,237
50700,122
50710,235
50720,175
50730,235
50740,160
50750,230
50760,169
50770,227
50780,169
50790,228
50800,166
50810,229
50820,172
50830,230
50840,170
50850,184
50860,170
50870,225
50880,167
50890,226
50900,169
50910,139
50920,171
50930,192
50940,176
50950,198
50960,148
50970,193
50980,173
50990,194
51000,172
51010,203
51020,213
51030,165
51040,192
51050,192
51060,192
51070,198
51080,203
51090,194
51100,176
51110,198
51120,222
51130,193
51140,134
51150,193
51160,182
51170,128
51180,208
51190,185
51200,182
51210,163
51220,176
51230,187
51240,187
51250,160
51260,190
51270,160
51280,190
51290,151
51300,208
51310,146
51320,190
51330,148
51340,193
51350,145
51360,185
51370,155
51380,192
51390,147
51400,187
51410,147
51420,191
51430,163
51440,181
51450,163
51460,178
51470,164
51480,198
51490,183
51500,129
51510,162
51520,189
51530,176
51540,180
51550,202
51560,181
51570,188
51580,171
51590,194
51600,146
51610,189
51620,187
51630,192
51640,193
51650,194
51660,231
51670,194
51680,187
51690,193
51700,184
51710,193
51720,178
51730,214
51740,190
51750,191
51760,191
51770,199
51780,182
51790,196
51800,179
51810,196
51820,185
51830,176
51840,183
51850,201
51860,199
51870,189
51880,188
51890,192
51900,189
51910,195
51920,175
51930,194
51940,191
51950,192
51960,161
51970,192
51980,192
51990,192
52000,192
52010,193
52020,176
52030,158
52040,176
52050,181
52060,176
52070,176
52080,191
52090,200
52100,185
52110,194
52120,208
52130,189
52140,189
52150,192
52160,191
52170,191
52180,191
52190,194
52200,190
52210,190
52220,192
52230,189
52240,188
52250,160
52260,167
52270,187
52280,190
52290,192
52300,190
52310,178
52320,183
52330,186
52340,187
52350,178
52360,209
52370,180
52380,186
52390,182
52400,229
52410,181
52420,190
52430,170
52440,183
52450,191
52460,186
52470,176
52480,193
52490,179
52500,189
52510,177
52520,189
52530,226
52540,187
52550,191
52560,144
52570,178
52580,204
52590,208
52600,186
52610,174
52620,208
52630,169
52640,150
52650,170
52660,190
52670,166
52680,191
52690,160
52700,193
52710,175
52720,195
52730,161
52740,193
52750,177
52760,198
52770,162
52780,201
52790,161
52800,203
52810,162
52820,213
52830,163
52840,209
52850,160
52860,209
52870,149
52880,210
52890,158
52900,226
52910,161
52920,227
52930,139
52940,226
52950,158
52960,221
52970,162
52980,257
52990,175
53000,229
53010,160
53020,164
53030,159
53040,111
53050,158
53060,160
53070,153
53080,270
53090,157
53100,246
53110,159
53120,224
53130,147
53140,247
53150,160
53160,241
53170,158
53180,256
53190,112
53200,236
53210,157
53220,268
53230,159
53240,254
53250,137
53260,256
53270,161
53280,256
53290,162
53300,258
53310,165
53320,256
53330,161
53340,241
53350,161
53360,255
53370,159
53380,256
53390,213
53400,261
53410,161
53420,257
53430,158
53440,256
53450,160
53460,255
53470,154
53480,241
53490,169
53500,263
53510,155
53520,260
53530,113
53540,261
53550,166
53560,260
53570,156
53580,261
53590,159
53600,263
53610,192
53620,291
53630,158
53640,270
53650,153
53660,266
53670,116
53680,268
53690,155
53700,271
53710,154
53720,272
53730,157
53740,267
53750,156
53760,279
53770,150
53780,283
53790,155
53800,272
53810,153
53820,267
53830,157
53840,270
53850,156
53860,244
53870,160
53880,267
53890,145
53900,273
53910,175
53920,270
53930,146
53940,266
53950,192
53960,267
53970,158
53980,300
53990,157
54000,263
54010,161
54020,160
54030,159
54040,158
54050,158
54060,150
54070,154
54080,257
54090,157
54100,254
54110,154
54120,261
54130,159
54140,256
54150,190
54160,281
54170,152
54180,231
54190,160
54200,253
54210,161
54220,253
54230,160
54240,250
54250,158
54260,249
54270,176
54280,247
54290,174
54300,268
54310,158
54320,249
54330,144
54340,253
54350,157
54360,176
54370,176
54380,171
54390,170
54400,176
54410,121
54420,239
54430,158
54440,238
54450,160
54460,217
54470,119
54480,219
54490,159
54500,246
54510,204
54520,219
54530,154
54540,227
54550,134
54560,227
54570,160
54580,282
54590,135
54600,227
54610,158
54620,250
54630,162
54640,223
54650,155
54660,219
54670,160
54680,217
54690,159
54700,219
54710,155
54720,206
54730,160
54740,218
54750,176
54760,183
54770,162
54780,182
54790,162
54800,183
54810,157
54820,191
54830,162
54840,187
54850,174
54860,191
54870,166
54880,217
54890,167
54900,191
54910,174
54920,191
54930,170
54940,185
54950,160
54960,178
54970,177
54980,163
54990,178
55000,163
55010,165
55020,181
55030,179
55040,182
55050,178
55060,180
55070,196
55080,144
55090,182
55100,133
55110,163
55120,135
55130,179
55140,141
55150,171
55160,144
55170,178
55180,148
55190,178
55200,167
55210,181
55220,170
55230,176
55240,176
55250,176
55260,178
55270,170
55280,174
55290,176
55300,174
55310,177
55320,179
55330,176
55340,181
55350,174
55360,181
55370,176
55380,179
55390,176
55400,182
55410,176
55420,182
55430,178
55440,214
55450,176
55460,180
55470,207
55480,175
55490,176
55500,181
55510,193
55520,180
55530,177
55540,182
55550,176
55560,177
55570,139
55580,180
55590,171
55600,180
55610,172
55620,182
55630,176
55640,186
55650,174
55660,176
55670,176
55680,149
55690,183
55700,176
55710,190
55720,176
55730,178
55740,177
55750,175
55760,165
55770,176
55780,176
55790,176
55800,160
55810,176
55820,176
55830,175
55840,176
55850,175
55860,186
55870,176
55880,176
55890,176
55900,175
55910,176
55920,176
55930,168
55940,170
55950,171
55960,173
55970,173
55980,186
55990,183
56000,167
56010,186
56020,182
56030,176
56040,187
56050,180
56060,176
56070,176
56080,168
56090,176
56100,176
56110,176
56120,166
56130,97
56140,171
56150,219
56160,164
56170,176
56180,151
56190,181
56200,159
56210,180
56220,160
56230,190
56240,159
56250,192
56260,161
56270,197
56280,160
56290,195
56300,191
56310,202
56320,160
56330,211
56340,156
56350,208
56360,194
56370,208
56380,155
56390,215
56400,156
56410,224
56420,161
56430,227
56440,154
56450,229
56460,162
56470,231
56480,155
56490,233
56500,158
56510,238
56520,160
56530,243
56540,155
56550,243
56560,162
56570,242
56580,154
56590,248
56600,161
56610,283
56620,162
56630,249
56640,160
56650,250
56660,157
56670,243
56680,164
56690,256
56700,128
56710,253
56720,163
56730,240
56740,163
56750,256
56760,240
56770,247
56780,163
56790,192
56800,151
56810,254
56820,154
56830,257
56840,164
56850,270
56860,161
56870,255
56880,170
56890,254
56900,160
56910,256
56920,162
56930,265
56940,157
56950,257
56960,164
56970,255
56980,156
56990,266
57000,156
57010,263
57020,272
57030,266
57040,263
57050,249
57060,272
57070,267
57080,151
57090,193
57100,198
57110,274
57120,159
57130,271
57140,154
57150,224
57160,157
57170,269
57180,157
57190,272
57200,154
57210,255
57220,158
57230,270
57240,151
57250,266
57260,136
57270,270
57280,157
57290,279
57300,158
57310,269
57320,155
57330,265
57340,208
57350,266
57360,157
57370,266
57380,123
57390,268
57400,142
57410,265
57420,155
57430,256
57440,161
57450,249
57460,155
57470,255
57480,156
57490,254
57500,154
57510,234
57520,155
57530,245
57540,159
57550,247
57560,166
57570,250
57580,158
57590,246
57600,154
57610,246
57620,208
57630,243
57640,165
57650,171
57660,159
57670,240
57680,160
57690,239
57700,158
57710,240
57720,158
57730,232
57740,155
57750,232
57760,151
57770,228
57780,158
57790,233
57800,155
57810,229
57820,119
57830,239
57840,160
57850,126
57860,176
57870,221
57880,153
57890,187
57900,162
57910,176
57920,158
57930,251
57940,156
57950,241
57960,150
57970,212
57980,157
57990,113
58000,154
58010,193
58020,209
58030,213
58040,208
58050,174
58060,215
58070,176
58080,167
58090,224
58100,168
58110,182
58120,171
58130,178
58140,172
58150,178
58160,176
58170,176
58180,176
58190,164
58200,176
58210,160
58220,177
58230,147
58240,179
58250,144
58260,182
58270,140
58280,209
58290,144
58300,178
58310,142
58320,161
58330,167
58340,190
58350,138
58360,178
58370,141
58380,175
58390,161
58400,176
58410,149
58420,178
58430,176
58440,207
58450,176
58460,176
58470,174
58480,175
58490,175
58500,192
58510,176
58520,177
58530,192
58540,176
58550,178
58560,194
58570,210
58580,176
58590,182
58600,176
58610,183
58620,180
58630,182
58640,176
58650,183
58660,174
58670,179
58680,177
58690,178
58700,175
58710,179
58720,177
58730,146
58740,173
58750,178
58760,176
58770,176
58780,177
58790,178
58800,176
58810,176
58820,176
58830,176
58840,176
58850,176
58860,193
58870,176
58880,176
58890,176
58900,176
58910,176
58920,176
58930,180
58940,175
58950,176
58960,177
58970,175
58980,176
58990,175
59000,194
59010,173
59020,177
59030,174
59040,174
59050,172
59060,171
59070,176
59080,176
59090,169
59100,175
59110,172
59120,176
59130,170
59140,177
59150,171
59160,177
59170,170
59180,176
59190,170
59200,181
59210,165
59220,176
59230,167
59240,183
59250,167
59260,189
59270,162
59280,191
59290,165
59300,176
59310,162
59320,192
59330,160
59340,193
59350,161
59360,204
59370,153
59380,203
59390,161
59400,205
59410,161
59420,211
59430,158
59440,215
59450,178
59460,220
59470,160
59480,220
59490,161
59500,263
59510,160
59520,235
59530,162
59540,216
59550,153
59560,271
59570,153
59580,241
59590,175
59600,244
59610,171
59620,246
59630,157
59640,253
59650,113
59660,249
59670,163
59680,253
59690,164
59700,255
59710,163
59720,253
59730,166
59740,253
59750,171
59760,256
59770,163
59780,256
59790,163
59800,256
59810,167
59820,256
59830,160
59840,257
59850,161
59860,257
59870,150
59880,261
59890,162
59900,263
59910,159
59920,263
59930,158
59940,260
59950,158
59960,257
59970,160
59980,266
59990,158
