timestamp,value
0,0
10,0
20,0
30,0
40,0
50,0
60,167
70,0
80,265
90,0
100,336
110,0
120,428
130,0
140,350
150,0
160,252
170,0
180,0
190,0
200,0
210,0
220,0
230,0
240,0
250,0
260,0
270,0
280,0
290,0
300,0
310,0
320,0
330,0
340,0
350,0
360,0
370,0
380,0
390,0
400,81
410,0
420,288
430,0
440,414
450,0
460,449
470,0
480,560
490,0
500,571
510,0
520,861
530,0
540,868
550,0
560,817
570,0
580,845
590,0
600,967
610,0
620,934
630,192
640,936
650,201
660,950
670,321
680,1002
690,400
700,1530
710,1922
720,1530
730,0
740,1264
750,651
760,1242
770,601
780,1361
790,709
800,1347
810,850
820,1393
830,912
840,1486
850,1023
860,1655
870,1097
880,1712
890,1213
900,1808
910,1301
920,1838
930,1359
940,1776
950,1217
960,1664
970,1107
980,1443
990,1262
1000,1259
1010,1252
1020,1253
1030,1232
1040,1248
1050,1337
1060,1552
1070,1280
1080,1633
1090,1221
1100,1584
1110,1216
1120,1577
1130,1280
1140,1552
1150,1297
1160,1591
1170,1235
1180,1554
1190,1290
1200,1520
1210,1301
1220,1605
1230,1345
1240,1576
1250,1409
1260,1719
1270,1517
1280,1680
1290,1565
1300,1535
1310,1451
1320,1559
1330,1417
1340,1620
1350,1488
1360,1579
1370,1511
1380,1671
1390,1552
1400,1663
1410,1616
1420,1651
1430,1655
1440,1701
1450,2352
1460,3243
1470,1554
1480,1322
1490,1801
1500,1771
1510,1713
1520,1712
1530,1831
1540,1712
1550,1861
1560,1750
1570,1894
1580,1819
1590,1903
1600,1919
1610,2082
1620,1904
1630,2151
1640,1955
1650,2203
1660,2039
1670,2227
1680,2003
1690,2162
1700,1839
1710,1979
1720,1610
1730,1871
1740,1515
1750,1794
1760,1523
1770,1813
1780,1481
1790,1888
1800,1495
1810,1878
1820,1471
1830,1908
1840,1504
1850,1936
1860,1532
1870,1925
1880,1523
1890,1967
1900,1517
1910,2000
1920,1534
1930,1935
1940,1567
1950,1993
1960,1573
1970,2015
1980,1525
1990,1957
2000,1969
2010,1977
2020,1986
2030,1967
2040,2015
2050,2416
2060,1617
2070,2195
2080,1616
2090,2159
2100,1616
2110,2091
2120,1584
2130,2107
2140,1597
2150,2157
2160,1565
2170,2173
2180,1552
2190,2621
2200,3092
2210,2149
2220,1121
2230,2173
2240,1529
2250,2128
2260,1478
2270,2212
2280,1490
2290,2128
2300,1635
2310,2157
2320,1584
2330,2178
2340,1584
2350,2187
2360,1630
2370,2237
2380,1670
2390,2341
2400,1535
2410,2370
2420,1685
2430,2145
2440,1504
2450,1921
2460,1166
2470,1673
2480,972
2490,1505
2500,989
2510,1595
2520,908
2530,1670
2540,848
2550,1788
2560,773
2570,1771
2580,849
2590,1761
2600,1040
2610,1761
2620,1001
2630,1819
2640,1070
2650,1792
2660,1180
2670,1941
2680,1270
2690,1985
2700,1391
2710,1975
2720,1422
2730,2128
2740,1501
2750,2320
2760,1746
2770,2307
2780,1745
2790,2301
2800,1576
2810,2294
2820,1649
2830,2391
2840,1747
2850,2403
2860,1773
2870,2416
2880,1802
2890,2411
2900,1840
2910,2528
2920,1869
2930,2512
2940,2599
2950,4095
2960,1565
2970,2138
2980,1948
2990,2880
3000,2889
3010,2892
3020,2894
3030,2906
3040,2915
3050,2830
3060,2171
3070,2809
3080,2263
3090,2913
3100,2281
3110,2847
3120,2304
3130,2894
3140,2363
3150,2870
3160,2238
3170,2976
3180,2092
3190,2735
3200,1986
3210,2366
3220,1831
3230,2352
3240,1716
3250,2301
3260,1746
3270,2329
3280,1719
3290,2210
3300,1839
3310,2237
3320,1782
3330,2303
3340,1723
3350,2264
3360,1776
3370,2261
3380,1759
3390,2218
3400,1795
3410,2226
3420,1729
3430,2207
3440,1727
3450,2100
3460,1793
3470,2288
3480,1805
3490,2205
3500,1808
3510,2064
3520,1731
3530,1990
3540,1803
3550,2154
3560,1762
3570,2115
3580,2032
3590,2167
3600,1951
3610,2207
3620,2007
3630,2221
3640,1971
3650,2423
3660,3203
3670,3127
3680,1427
3690,2099
3700,2064
3710,2125
3720,2047
3730,2203
3740,2072
3750,2202
3760,2074
3770,2234
3780,2126
3790,2373
3800,2315
3810,2388
3820,2386
3830,2559
3840,2423
3850,2621
3860,2544
3870,2578
3880,2582
3890,2440
3900,2496
3910,2368
3920,2367
3930,2300
3940,2303
3950,2176
3960,2283
3970,2192
3980,2205
3990,3033
4000,3015
4010,2993
4020,3010
4030,2991
4040,3002
4050,2537
4060,2473
4070,2369
4080,2480
4090,2278
4100,2354
4110,2199
4120,2382
4130,2164
4140,2342
4150,2183
4160,2323
4170,2096
4180,2447
4190,2178
4200,2304
4210,2125
4220,2192
4230,1899
4240,2192
4250,1888
4260,2155
4270,1866
4280,2175
4290,1855
4300,2207
4310,1771
4320,2176
4330,1871
4340,2096
4350,1888
4360,2181
4370,1822
4380,1824
4390,1840
4400,1856
4410,1851
4420,2225
4430,1795
4440,2170
4450,1763
4460,2278
4470,1824
4480,2279
4490,1888
4500,2327
4510,1904
4520,2384
4530,1993
4540,2459
4550,2022
4560,2559
4570,2032
4580,2621
4590,2078
4600,2543
4610,1977
4620,2398
4630,1728
4640,2198
4650,1552
4660,2059
4670,1451
4680,1959
4690,1399
4700,1986
4710,1425
4720,1949
4730,1365
4740,1974
4750,1429
4760,1926
4770,1407
4780,1955
4790,1339
4800,1974
4810,1392
4820,1945
4830,1413
4840,1996
4850,1360
4860,1959
4870,1362
4880,1942
4890,1392
4900,2036
4910,1520
4920,2075
4930,1458
4940,1990
4950,1320
4960,1951
4970,1328
4980,1890
4990,1968
5000,1972
5010,1968
5020,1958
5030,1953
5040,1916
5050,1666
5060,2257
5070,1616
5080,2193
5090,1870
5100,3719
5110,2288
5120,1585
5130,1431
5140,2162
5150,1375
5160,2055
5170,1331
5180,2047
5190,1408
5200,2015
5210,1386
5220,2082
5230,1408
5240,2101
5250,1456
5260,2186
5270,1568
5280,2243
5290,1666
5300,2293
5310,1697
5320,2309
5330,1615
5340,2223
5350,1507
5360,2059
5370,1381
5380,1962
5390,1347
5400,1982
5410,1426
5420,2031
5430,1501
5440,2158
5450,1552
5460,2194
5470,1643
5480,2251
5490,1712
5500,2369
5510,1795
5520,2352
5530,1805
5540,2395
5550,1829
5560,2357
5570,1914
5580,2401
5590,1920
5600,2544
5610,2121
5620,2559
5630,2100
5640,2522
5650,1965
5660,2461
5670,2006
5680,2494
5690,2086
5700,2559
5710,2093
5720,2630
5730,2187
5740,2638
5750,2214
5760,2718
5770,2242
5780,2667
5790,2486
5800,4095
5810,3637
5820,2223
5830,2262
5840,2966
5850,2375
5860,2811
5870,2499
5880,2895
5890,2527
5900,2895
5910,2653
5920,2962
5930,2730
5940,3157
5950,2778
5960,3216
5970,2935
5980,3439
5990,3239
6000,3280
6010,3248
6020,3235
6030,3239
6040,3231
6050,3325
6060,3390
6070,3106
6080,3338
6090,3010
6100,3250
6110,3008
6120,3363
6130,3070
6140,3382
6150,3209
6160,3409
6170,3219
6180,3415
6190,3295
6200,3671
6210,3402
6220,3602
6230,3442
6240,3632
6250,3472
6260,3731
6270,3612
6280,3776
6290,3632
6300,3797
6310,4095
6320,4095
6330,4095
6340,4095
6350,4061
6360,3941
6370,4050
6380,4043
6390,4095
6400,4095
6410,4095
6420,4095
6430,4095
6440,4095
6450,4095
6460,4095
6470,4095
6480,4095
6490,4095
6500,4095
6510,4095
6520,4095
6530,4095
6540,4095
6550,4095
6560,4095
6570,4095
6580,4095
6590,4095
6600,4095
6610,4095
6620,4095
6630,4095
6640,4095
6650,4095
6660,4095
6670,4095
6680,4095
6690,4095
6700,4095
6710,4095
6720,4095
6730,4095
6740,4095
6750,4095
6760,4095
6770,4095
6780,4095
6790,4095
6800,4095
6810,4095
6820,4095
6830,4095
6840,4095
6850,4095
6860,4095
6870,4095
6880,3527
6890,4016
6900,3260
6910,3675
6920,2978
6930,3399
6940,2773
6950,3285
6960,2559
6970,2989
6980,2388
6990,2368
7000,2374
7010,2399
7020,2405
7030,2433
7040,2423
7050,2739
7060,1817
7070,2335
7080,1726
7090,2209
7100,1531
7110,2084
7120,1392
7130,1892
7140,1251
7150,1773
7160,1153
7170,1648
7180,1009
7190,1759
7200,1979
7210,2681
7220,333
7230,1229
7240,809
7250,1282
7260,599
7270,1232
7280,550
7290,1167
7300,525
7310,1117
7320,479
7330,1104
7340,438
7350,1131
7360,439
7370,1153
7380,479
7390,1225
7400,496
7410,1191
7420,418
7430,1128
7440,277
7450,915
7460,142
7470,715
7480,0
7490,674
7500,0
7510,656
7520,0
7530,655
7540,0
7550,662
7560,1
7570,731
7580,19
7590,759
7600,64
7610,784
7620,89
7630,820
7640,128
7650,837
7660,160
7670,845
7680,255
7690,1067
7700,337
7710,1040
7720,386
7730,961
7740,272
7750,942
7760,334
7770,995
7780,399
7790,1100
7800,450
7810,1138
7820,525
7830,1197
7840,541
7850,1252
7860,621
7870,1285
7880,1065
7890,2931
7900,1015
7910,875
7920,816
7930,1469
7940,799
7950,1402
7960,896
7970,1510
7980,949
7990,2217
8000,2224
8010,2201
8020,2231
8030,2243
8040,2240
8050,2106
8060,1379
8070,2019
8080,1467
8090,2002
8100,1439
8110,1927
8120,1400
8130,1818
8140,1197
8150,1603
8160,1063
8170,1442
8180,1010
8190,1454
8200,939
8210,1489
8220,1067
8230,1529
8240,1064
8250,1535
8260,1117
8270,1581
8280,1140
8290,1554
8300,1187
8310,1587
8320,1166
8330,1567
8340,1191
8350,1594
8360,1198
8370,1590
8380,1296
8390,1735
8400,1389
8410,1776
8420,1389
8430,1591
8440,1273
8450,1531
8460,1297
8470,1522
8480,1270
8490,1569
8500,1328
8510,1585
8520,1367
8530,1807
8540,1787
8550,1778
8560,1762
8570,1744
8580,1724
8590,1719
8600,1709
8610,959
8620,1235
8630,1552
8640,1296
8650,1443
8660,1337
8670,1431
8680,1441
8690,1493
8700,1502
8710,1562
8720,1596
8730,1603
8740,1655
8750,1705
8760,1744
8770,1809
8780,1794
8790,1827
8800,1850
8810,1777
8820,1847
8830,1702
8840,1659
8850,1530
8860,1508
8870,1345
8880,1459
8890,1375
8900,1449
8910,1359
8920,1476
8930,1361
8940,1501
8950,1328
8960,1553
8970,1390
8980,1500
8990,2186
9000,2169
9010,2171
9020,2162
9030,2160
9040,2144
9050,1665
9060,1822
9070,1577
9080,1840
9090,1584
9100,1939
9110,1621
9120,1899
9130,1504
9140,1714
9150,1333
9160,1690
9170,1345
9180,1666
9190,1321
9200,1644
9210,1321
9220,1705
9230,1315
9240,1735
9250,1343
9260,1742
9270,1300
9280,1809
9290,1694
9300,3259
9310,1858
9320,1271
9330,1349
9340,1901
9350,1336
9360,1859
9370,1383
9380,1936
9390,1430
9400,1913
9410,1503
9420,1985
9430,1505
9440,2082
9450,1582
9460,2118
9470,1621
9480,2220
9490,1728
9500,2241
9510,1765
9520,2256
9530,1661
9540,2144
9550,1471
9560,1970
9570,1327
9580,1870
9590,1328
9600,1840
9610,1292
9620,1872
9630,1336
9640,1939
9650,1300
9660,1957
9670,1392
9680,1967
9690,1330
9700,1999
9710,1395
9720,2000
9730,1358
9740,2010
9750,1433
9760,2067
9770,1394
9780,2060
9790,1461
9800,2163
9810,1476
9820,2109
9830,1430
9840,2034
9850,1318
9860,2000
9870,1387
9880,1979
9890,1354
9900,2026
9910,1483
9920,2047
9930,1411
9940,2091
9950,1456
9960,2123
9970,1436
9980,2210
9990,2105
10000,2096
10010,2087
10020,2093
10030,2032
10040,2076
10050,1897
10060,2484
10070,1831
10080,2482
10090,1823
10100,2480
10110,1787
10120,2448
10130,1792
10140,2429
10150,1769
10160,2439
10170,1829
10180,2454
10190,1857
10200,2485
10210,1802
10220,2378
10230,1655
10240,2195
10250,1490
10260,1973
10270,1264
10280,1873
10290,1235
10300,1842
10310,1213
10320,1920
10330,1275
10340,1904
10350,1307
10360,1904
10370,1340
10380,1891
10390,1302
10400,1883
10410,1343
10420,1890
10430,1371
10440,1936
10450,1405
10460,1920
10470,1394
10480,1898
10490,1438
10500,1937
10510,1535
10520,2094
10530,1573
10540,2075
10550,1525
10560,1935
10570,1453
10580,1886
10590,1462
10600,1929
10610,1487
10620,1935
10630,1488
10640,1996
10650,1583
10660,2010
10670,1647
10680,2034
10690,1619
10700,2112
10710,2537
10720,3487
10730,1246
10740,1779
10750,1759
10760,1964
10770,1655
10780,1984
10790,1666
10800,1984
10810,1685
10820,1973
10830,1758
10840,2036
10850,1766
10860,2058
10870,1844
10880,2123
10890,1878
10900,2159
10910,1915
10920,2179
10930,1925
10940,2059
10950,1827
10960,1866
10970,1636
10980,1712
10990,1639
11000,1650
11010,1646
11020,1648
11030,1629
11040,1648
11050,1907
11060,1889
11070,1862
11080,1915
11090,1759
11100,1894
11110,1776
11120,1759
11130,1673
11140,1744
11150,1685
11160,1616
11170,1648
11180,1629
11190,1616
11200,1553
11210,1577
11220,1510
11230,1600
11240,1498
11250,1584
11260,1627
11270,1755
11280,1585
11290,1732
11300,1513
11310,1535
11320,1439
11330,1572
11340,1403
11350,1592
11360,1447
11370,1609
11380,1429
11390,1686
11400,1433
11410,1695
11420,1472
11430,1709
11440,1520
11450,1849
11460,2420
11470,3169
11480,1160
11490,1591
11500,1650
11510,1826
11520,1552
11530,1911
11540,1635
11550,1956
11560,1659
11570,2009
11580,1674
11590,2057
11600,1725
11610,2210
11620,1790
11630,2277
11640,1901
11650,2323
11660,1961
11670,2336
11680,1958
11690,2318
11700,1794
11710,2195
11720,1624
11730,1969
11740,1472
11750,1887
11760,1413
11770,1924
11780,1443
11790,1947
11800,1492
11810,1950
11820,1503
11830,2059
11840,1520
11850,2038
11860,1526
11870,2073
11880,1589
11890,2083
11900,1565
11910,2078
11920,1593
11930,2116
11940,1568
11950,2128
11960,1566
11970,2165
11980,1595
11990,2225
12000,2241
12010,2254
12020,2271
12030,2273
12040,2291
12050,2610
12060,1788
12070,2448
12080,1760
12090,2359
12100,1786
12110,2340
12120,1741
12130,2346
12140,1687
12150,2281
12160,1713
12170,2309
12180,1675
12190,2930
12200,3168
12210,2128
12220,1267
12230,2345
12240,1583
12250,2207
12260,1600
12270,2217
12280,1600
12290,2256
12300,1616
12310,2307
12320,1664
12330,2301
12340,1679
12350,2384
12360,1773
12370,2420
12380,1792
12390,2336
12400,2320
12410,2338
12420,2295
12430,2307
12440,1585
12450,2106
12460,1376
12470,1875
12480,1274
12490,1806
12500,1162
12510,1823
12520,1163
12530,1871
12540,1198
12550,1850
12560,1232
12570,1926
12580,1316
12590,1950
12600,1344
12610,1939
12620,1347
12630,1977
12640,1350
12650,1971
12660,1369
12670,1966
12680,1372
12690,2001
12700,1439
12710,2125
12720,1488
12730,2151
12740,1474
12750,1994
12760,1334
12770,1943
12780,1403
12790,1946
12800,1405
12810,1981
12820,1474
12830,2011
12840,1475
12850,2053
12860,1554
12870,2064
12880,1521
12890,2114
12900,1870
12910,3682
12920,2326
12930,1553
12940,1533
12950,2173
12960,1600
12970,2090
12980,1657
12990,2816
13000,2853
13010,2871
13020,2854
13030,2832
13040,2862
13050,2647
13060,2018
13070,2485
13080,2104
13090,2482
13100,2076
13110,2437
13120,2037
13130,2366
13140,1914
13150,2195
13160,1721
13170,1936
13180,1520
13190,1781
13200,1417
13210,1698
13220,1408
13230,1687
13240,1401
13250,1699
13260,1397
13270,1648
13280,1459
13290,1688
13300,1427
13310,1690
13320,1423
13330,1627
13340,1436
13350,1623
13360,1424
13370,1596
13380,1456
13390,1568
13400,1455
13410,1585
13420,1564
13430,1710
13440,1602
13450,1690
13460,1515
13470,1486
13480,1404
13490,1499
13500,1450
13510,1535
13520,1467
13530,1527
13540,1577
13550,1558
13560,1553
13570,1586
13580,1614
13590,1562
13600,1615
13610,1741
13620,2475
13630,3114
13640,1418
13650,1405
13660,1891
13670,1677
13680,1787
13690,1706
13700,1821
13710,1744
13720,1891
13730,1746
13740,1997
13750,1797
13760,1985
13770,1890
13780,2077
13790,1924
13800,2186
13810,2003
13820,2225
13830,1974
13840,2128
13850,1959
13860,2111
13870,1721
13880,1904
13890,1517
13900,1775
13910,1426
13920,1737
13930,1371
13940,1750
13950,1472
13960,1751
13970,1435
13980,1803
13990,2297
14000,2326
14010,2310
14020,2269
14030,2256
14040,2256
14050,1778
14060,2079
14070,1739
14080,2097
14090,1715
14100,2099
14110,1621
14120,2085
14130,1657
14140,2224
14150,1681
14160,2144
14170,1607
14180,2058
14190,1488
14200,1974
14210,1488
14220,1979
14230,1477
14240,2016
14250,1450
14260,2000
14270,1523
14280,2068
14290,1495
14300,2068
14310,1511
14320,2046
14330,1845
14340,3713
14350,2155
14360,1630
14370,1607
14380,2224
14390,1555
14400,2190
14410,1584
14420,2210
14430,1649
14440,2233
14450,1658
14460,2290
14470,1712
14480,2322
14490,1750
14500,2407
14510,1834
14520,2471
14530,1883
14540,2528
14550,1907
14560,2483
14570,1840
14580,2351
14590,1607
14600,2192
14610,1454
14620,2006
14630,1393
14640,2041
14650,1363
14660,2023
14670,1381
14680,2082
14690,1423
14700,2096
14710,1453
14720,2098
14730,1463
14740,2162
14750,1488
14760,2133
14770,1505
14780,2161
14790,1507
14800,2150
14810,1488
14820,2159
14830,1502
14840,2183
14850,1649
14860,2273
14870,1635
14880,2286
14890,1535
14900,2128
14910,1471
14920,2102
14930,1478
14940,2114
14950,1514
14960,2162
14970,1518
14980,2166
14990,2576
15000,2559
15010,2589
15020,2559
15030,2559
15040,2582
15050,2983
15060,3743
15070,1285
15080,2203
15090,1869
15100,2266
15110,1739
15120,2315
15130,1713
15140,2314
15150,1738
15160,2325
15170,1792
15180,2378
15190,1824
15200,2378
15210,1869
15220,2432
15230,1947
15240,2490
15250,1950
15260,2480
15270,1925
15280,2384
15290,1815
15300,2203
15310,1607
15320,2005
15330,1513
15340,1948
15350,1424
15360,1938
15370,1478
15380,1927
15390,1489
15400,1974
15410,1535
15420,1938
15430,1535
15440,1935
15450,1535
15460,1951
15470,1527
15480,1909
15490,1527
15500,1912
15510,1587
15520,1882
15530,1552
15540,1993
15550,1713
15560,1962
15570,1664
15580,1857
15590,1535
15600,1815
15610,1554
15620,1872
15630,1598
15640,1881
15650,1683
15660,1901
15670,1698
15680,1913
15690,1727
15700,1950
15710,1767
15720,1936
15730,1914
15740,2890
15750,3312
15760,1589
15770,1579
15780,2094
15790,1870
15800,1920
15810,1917
15820,1973
15830,1930
15840,1999
15850,1929
15860,2056
15870,2031
15880,2071
15890,2078
15900,2128
15910,2168
15920,2159
15930,2239
15940,2215
15950,2221
15960,2192
15970,2187
15980,2043
15990,1753
16000,1751
16010,1754
16020,1761
16030,1775
16040,1780
16050,2060
16060,1721
16070,1881
16080,1714
16090,1879
16100,1727
16110,2123
16120,2192
16130,2090
16140,2128
16150,2128
16160,1670
16170,1901
16180,1670
16190,1877
16200,1648
16210,1893
16220,1634
16230,1947
16240,1776
16250,1986
16260,1776
16270,1957
16280,1585
16290,1814
16300,1574
16310,1889
16320,1573
16330,1906
16340,1530
16350,1937
16360,1572
16370,1970
16380,1572
16390,2003
16400,1584
16410,2011
16420,1680
16430,2557
16440,3214
16450,2112
16460,1201
16470,2147
16480,1669
16490,2074
16500,1648
16510,2128
16520,1666
16530,2170
16540,1718
16550,2211
16560,1764
16570,2273
16580,1771
16590,2299
16600,1860
16610,2397
16620,1892
16630,2414
16640,1906
16650,2448
16660,1834
16670,2320
16680,1707
16690,2110
16700,1498
16710,1990
16720,1390
16730,1959
16740,1357
16750,1962
16760,1343
16770,1975
16780,1379
16790,1952
16800,1392
16810,1971
16820,1386
16830,2035
16840,1392
16850,2004
16860,1378
16870,1987
16880,1363
16890,2025
16900,1392
16910,2001
16920,1461
16930,2190
16940,1526
16950,2160
16960,1469
16970,2019
16980,1347
16990,2161
17000,2173
17010,2185
17020,2192
17030,2197
17040,2208
17050,2321
17060,1459
17070,2190
17080,1511
17090,2130
17100,1456
17110,2134
17120,1808
17130,3803
17140,1957
17150,1662
17160,1489
17170,2210
17180,1487
17190,2160
17200,1510
17210,2178
17220,1568
17230,2196
17240,1594
17250,2256
17260,1611
17270,2307
17280,1710
17290,2311
17300,1766
17310,2431
17320,1819
17330,2457
17340,1840
17350,2397
17360,1709
17370,2234
17380,1535
17390,2030
17400,1345
17410,1939
17420,1325
17430,1882
17440,1328
17450,1894
17460,1370
17470,1937
17480,1374
17490,1953
17500,1431
17510,1940
17520,1447
17530,1982
17540,1456
17550,2019
17560,1461
17570,1990
17580,1466
17590,1963
17600,1535
17610,2129
17620,1564
17630,2077
17640,1514
17650,1964
17660,1424
17670,1858
17680,1472
17690,1887
17700,1477
17710,1890
17720,1463
17730,1920
17740,1503
17750,1935
17760,1574
17770,1959
17780,1582
17790,1974
17800,1887
17810,3511
17820,2179
17830,1469
17840,1571
17850,2003
17860,1611
17870,1958
17880,1670
17890,1945
17900,1698
17910,1995
17920,1774
17930,2039
17940,1811
17950,2079
17960,1808
17970,2167
17980,1957
17990,2674
18000,2657
18010,2653
18020,2657
18030,2682
18040,2689
18050,2256
18060,1794
18070,1899
18080,1664
18090,1744
18100,1609
18110,1729
18120,1584
18130,1717
18140,1626
18150,1680
18160,1680
18170,1727
18180,1685
18190,1750
18200,1714
18210,1775
18220,1726
18230,1808
18240,1797
18250,1763
18260,1856
18270,1866
18280,1975
18290,1856
18300,1948
18310,1881
18320,1829
18330,1703
18340,1782
18350,1698
18360,1839
18370,1678
18380,1829
18390,1729
18400,1875
18410,1741
18420,1936
18430,1822
18440,1948
18450,1766
18460,2000
18470,2030
18480,3439
18490,2658
18500,1473
18510,1693
18520,2151
18530,1779
18540,2092
18550,1813
18560,2122
18570,1903
18580,2165
18590,1904
18600,2267
18610,1965
18620,2304
18630,1987
18640,2371
18650,2087
18660,2460
18670,2139
18680,2503
18690,2096
18700,2465
18710,1968
18720,2279
18730,1792
18740,2130
18750,1615
18760,2021
18770,1531
18780,2047
18790,1581
18800,2080
18810,1616
18820,2081
18830,1616
18840,2145
18850,1616
18860,2173
18870,1599
18880,2189
18890,1623
18900,2202
18910,1629
18920,2176
18930,1616
18940,2189
18950,1581
18960,2189
18970,1616
18980,2256
18990,2263
19000,2238
19010,2225
19020,2203
19030,2193
19040,2189
19050,1746
19060,2275
19070,1668
19080,2265
19090,1591
19100,2256
19110,1612
19120,2224
19130,1535
19140,2235
19150,1552
19160,2214
19170,1535
19180,2579
19190,3035
19200,2633
19210,1014
19220,2218
19230,1593
19240,2190
19250,1520
19260,2187
19270,1533
19280,2201
19290,1535
19300,2271
19310,1627
19320,2269
19330,1650
19340,2336
19350,1717
19360,2383
19370,1808
19380,2464
19390,1803
19400,2428
19410,1755
19420,2349
19430,1568
19440,2160
19450,1405
19460,1987
19470,1232
19480,1935
19490,1262
19500,1921
19510,1278
19520,1915
19530,1314
19540,1971
19550,1337
19560,1965
19570,1345
19580,2021
19590,1352
19600,2004
19610,1375
19620,1975
19630,1409
19640,2033
19650,1363
19660,2017
19670,1429
19680,2038
19690,1418
19700,2035
19710,1486
19720,2170
19730,1523
19740,2137
19750,1594
19760,2000
19770,1399
19780,1949
19790,1419
19800,1963
19810,1454
19820,1990
19830,1425
19840,1612
19850,1615
19860,1574
19870,1565
19880,1573
19890,1515
19900,1968
19910,1690
19920,2983
19930,2832
19940,1598
19950,1408
19960,2166
19970,1611
19980,2058
19990,2041
20000,2035
20010,2062
20020,2018
20030,2009
20040,2032
20050,2074
20060,2261
20070,1965
20080,2343
20090,1957
20100,2357
20110,2039
20120,2355
20130,2031
20140,2291
20150,1942
20160,2194
20170,1738
20180,1910
20190,1599
20200,1841
20210,1499
20220,1728
20230,1489
20240,1744
20250,1535
20260,1712
20270,1570
20280,1755
20290,1520
20300,1741
20310,1584
20320,1712
20330,1601
20340,1726
20350,1594
20360,1709
20370,1567
20380,1687
20390,1567
20400,1647
20410,1614
20420,1679
20430,1622
20440,1745
20450,1820
20460,1790
20470,1795
20480,1744
20490,1710
20500,1653
20510,1700
20520,1684
20530,1687
20540,1671
20550,1746
20560,1649
20570,1835
20580,1741
20590,1847
20600,1773
20610,1850
20620,1744
20630,1938
20640,2003
20650,3229
20660,2757
20670,1392
20680,1648
20690,2085
20700,1787
20710,2001
20720,1784
20730,2063
20740,1826
20750,2153
20760,1872
20770,2171
20780,1907
20790,2215
20800,1958
20810,2320
20820,1998
20830,2374
20840,2065
20850,2447
20860,2007
20870,2359
20880,1904
20890,2176
20900,1699
20910,1934
20920,1456
20930,1783
20940,1311
20950,1706
20960,1239
20970,1661
20980,1278
20990,1601
21000,1621
21010,1653
21020,1637
21030,1645
21040,1646
21050,1971
21060,1195
21070,1775
21080,1245
21090,1677
21100,1157
21110,1665
21120,1136
21130,1664
21140,1134
21150,1665
21160,1113
21170,1699
21180,1117
21190,1776
21200,1296
21210,1861
21220,1270
21230,1778
21240,1187
21250,1777
21260,1177
21270,1855
21280,1177
21290,1814
21300,1238
21310,1965
21320,1274
21330,1989
21340,1329
21350,1991
21360,1408
21370,2031
21380,1369
21390,2337
21400,2770
21410,2867
21420,886
21430,2111
21440,1567
21450,2123
21460,1477
21470,2126
21480,1520
21490,2206
21500,1565
21510,2302
21520,1561
21530,2294
21540,1648
21550,2357
21560,1695
21570,2432
21580,1776
21590,2497
21600,1789
21610,2512
21620,1785
21630,2432
21640,1635
21650,2233
21660,1456
21670,2078
21680,1307
21690,2025
21700,1297
21710,2053
21720,1329
21730,2053
21740,1334
21750,2066
21760,1378
21770,2085
21780,1377
21790,2119
21800,1470
21810,2149
21820,1459
21830,2160
21840,1495
21850,2217
21860,1535
21870,2211
21880,1510
21890,2224
21900,1591
21910,2226
21920,1600
21930,2272
21940,1642
21950,2288
21960,1648
21970,2289
21980,1798
21990,2604
22000,2624
22010,2657
22020,2683
22030,2673
22040,2663
22050,2544
22060,1691
22070,2304
22080,1717
22090,2326
22100,1745
22110,2288
22120,1761
22130,2305
22140,1745
22150,2274
22160,1774
22170,2343
22180,2275
22190,4050
22200,1791
22210,1858
22220,1837
22230,2278
22240,1764
22250,2253
22260,1822
22270,2290
22280,1815
22290,2260
22300,1878
22310,2317
22320,1920
22330,2310
22340,1983
22350,2388
22360,2067
22370,2427
22380,2128
22390,2463
22400,2094
22410,2377
22420,2015
22430,2195
22440,1803
22450,1993
22460,1646
22470,1817
22480,1611
22490,1811
22500,1570
22510,1839
22520,1650
22530,1827
22540,1686
22550,1857
22560,1702
22570,1884
22580,1717
22590,1855
22600,1761
22610,1891
22620,1783
22630,1869
22640,1793
22650,1897
22660,1824
22670,1869
22680,1824
22690,1856
22700,1889
22710,1824
22720,1880
22730,1883
22740,1895
22750,1844
22760,1967
22770,1926
22780,2082
22790,1933
22800,2030
22810,1915
22820,1967
22830,1792
22840,1926
22850,1785
22860,1925
22870,1770
22880,1911
22890,1729
22900,1959
22910,1762
22920,1921
22930,1680
22940,1911
22950,1710
22960,1885
22970,1963
22980,3376
22990,2370
23000,2387
23010,2368
23020,2385
23030,2333
23040,2355
23050,1840
23060,1943
23070,1680
23080,2064
23090,1675
23100,2090
23110,1697
23120,2131
23130,1771
23140,2194
23150,1837
23160,2271
23170,1846
23180,2359
23190,1890
23200,2318
23210,1789
23220,2224
23230,1601
23240,2029
23250,1431
23260,1872
23270,1376
23280,1862
23290,1377
23300,1875
23310,1383
23320,1921
23330,1381
23340,1981
23350,1449
23360,1989
23370,1424
23380,2025
23390,1431
23400,2019
23410,1454
23420,2032
23430,1458
23440,2010
23450,1408
23460,2068
23470,1404
23480,2058
23490,1421
23500,2065
23510,1415
23520,2128
23530,1568
23540,2203
23550,1534
23560,2055
23570,2061
23580,2059
23590,2079
23600,2070
23610,1365
23620,2032
23630,1359
23640,2074
23650,1328
23660,2033
23670,1357
23680,2026
23690,1339
23700,2034
23710,1344
23720,2135
23730,2183
23740,3696
23750,1107
23760,1793
23770,1488
23780,2107
23790,1397
23800,2117
23810,1415
23820,2130
23830,1425
23840,2191
23850,1491
23860,2227
23870,1529
23880,2253
23890,1584
23900,2327
23910,1650
23920,2352
23930,1699
23940,2391
23950,1711
23960,2306
23970,1520
23980,2095
23990,1440
24000,1456
24010,1438
24020,1431
24030,1424
24040,1411
24050,1197
24060,1665
24070,1067
24080,1693
24090,1009
24100,1655
24110,1039
24120,1633
24130,958
24140,1627
24150,944
24160,1575
24170,923
24180,1553
24190,897
24200,1517
24210,953
24220,1504
24230,896
24240,1527
24250,897
24260,1464
24270,916
24280,1466
24290,883
24300,1489
24310,1005
24320,1535
24330,991
24340,1429
24350,839
24360,1302
24370,731
24380,1220
24390,679
24400,1171
24410,643
24420,1090
24430,640
24440,1072
24450,577
24460,1034
24470,503
24480,921
24490,478
24500,1040
24510,1420
24520,1975
24530,0
24540,464
24550,389
24560,652
24570,251
24580,636
24590,275
24600,640
24610,302
24620,654
24630,353
24640,692
24650,416
24660,714
24670,455
24680,781
24690,602
24700,827
24710,634
24720,837
24730,599
24740,769
24750,447
24760,535
24770,309
24780,342
24790,135
24800,302
24810,115
24820,262
24830,141
24840,309
24850,198
24860,364
24870,336
24880,418
24890,385
24900,511
24910,490
24920,621
24930,590
24940,675
24950,686
24960,717
24970,762
24980,767
24990,1050
25000,1056
25010,1109
25020,1077
25030,1081
25040,1085
25050,1355
25060,1023
25070,1261
25080,1127
25090,1267
25100,1163
25110,1378
25120,1306
25130,1535
25140,1351
25150,1641
25160,1344
25170,1532
25180,1343
25190,1623
25200,1408
25210,1689
25220,1492
25230,1779
25240,1581
25250,1846
25260,1607
25270,1975
25280,1665
25290,2032
25300,1733
25310,2167
25320,2620
25330,3749
25340,1469
25350,1895
25360,1923
25370,2206
25380,1840
25390,2259
25400,1889
25410,2327
25420,1943
25430,2320
25440,1936
25450,2377
25460,1909
25470,2351
25480,1936
25490,2429
25500,1968
25510,2461
25520,2034
25530,2465
25540,1994
25550,2406
25560,1872
25570,2271
25580,1639
25590,2067
25600,1424
25610,1916
25620,1349
25630,1891
25640,1307
25650,1894
25660,1307
25670,1935
25680,1343
25690,1927
25700,1337
25710,1968
25720,1379
25730,1974
25740,1424
25750,2009
25760,1367
25770,2065
25780,1409
25790,2022
25800,1424
25810,2059
25820,1403
25830,2097
25840,1456
25850,2104
25860,1512
25870,2233
25880,1666
25890,2298
25900,1649
25910,2248
25920,1565
25930,2173
25940,1557
25950,2237
25960,1535
25970,2256
25980,1584
25990,2423
26000,2429
26010,2457
26020,2467
26030,2498
26040,2487
26050,2605
26060,1767
26070,3027
26080,3440
26090,2413
26100,1309
26110,2533
26120,1828
26130,2427
26140,1764
26150,2484
26160,1806
26170,2485
26180,1850
26190,2559
26200,1889
26210,2580
26220,1952
26230,2625
26240,1997
26250,2677
26260,2078
26270,2796
26280,2131
26290,2826
26300,2099
26310,2686
26320,1974
26330,2517
26340,1766
26350,2347
26360,1691
26370,2283
26380,1622
26390,2303
26400,1648
26410,2273
26420,1674
26430,2288
26440,1692
26450,2301
26460,1713
26470,2343
26480,1759
26490,2342
26500,1785
26510,2364
26520,1769
26530,2335
26540,1754
26550,2345
26560,1777
26570,2332
26580,1813
26590,2331
26600,1823
26610,2331
26620,1803
26630,2358
26640,1951
26650,2474
26660,1946
26670,2416
26680,1857
26690,2287
26700,1777
26710,2304
26720,1807
26730,2241
26740,1836
26750,2245
26760,1857
26770,2245
26780,1876
26790,2277
26800,1889
26810,2230
26820,1910
26830,2362
26840,2891
26850,3760
26860,1514
26870,2032
26880,2094
26890,2251
26900,1978
26910,2219
26920,2015
26930,2277
26940,2035
26950,2291
26960,2132
26970,2313
26980,2128
26990,3183
27000,3182
27010,3196
27020,3173
27030,3187
27040,3173
27050,2722
27060,2338
27070,2479
27080,2337
27090,2223
27100,2092
27110,2032
27120,1931
27130,1872
27140,1861
27150,1845
27160,1850
27170,1794
27180,1856
27190,1833
27200,1885
27210,1819
27220,1901
27230,1808
27240,1891
27250,1803
27260,1923
27270,1782
27280,1927
27290,1820
27300,1947
27310,1781
27320,1943
27330,1745
27340,1987
27350,1664
27360,1662
27370,1663
27380,1654
27390,1654
27400,2096
27410,1850
27420,2065
27430,1712
27440,1932
27450,1661
27460,1941
27470,1643
27480,1949
27490,1641
27500,1978
27510,1600
27520,2007
27530,1665
27540,1998
27550,1616
27560,2017
27570,1691
27580,2225
27590,2727
27600,3367
27610,1251
27620,1968
27630,1855
27640,2161
27650,1707
27660,2207
27670,1745
27680,2192
27690,1782
27700,2271
27710,1776
27720,2329
27730,1836
27740,2375
27750,1903
27760,2448
27770,1956
27780,2524
27790,1968
27800,2576
27810,1986
27820,2512
27830,1877
27840,2320
27850,1680
27860,2128
27870,1523
27880,2061
27890,1459
27900,2033
27910,1459
27920,2064
27930,1433
27940,2064
27950,1446
27960,2001
27970,1360
27980,2002
27990,1874
28000,1854
28010,1853
28020,1840
28030,1823
28040,1846
28050,1450
28060,1903
28070,1344
28080,1934
28090,1304
28100,1936
28110,1397
28120,2072
28130,1407
28140,2080
28150,1410
28160,1930
28170,1273
28180,1935
28190,1241
28200,1943
28210,1327
28220,1977
28230,1329
28240,2005
28250,1365
28260,2064
28270,1420
28280,2038
28290,1424
28300,2119
28310,1827
28320,3755
28330,1995
28340,1588
28350,1437
28360,2237
28370,1461
28380,2132
28390,1521
28400,2187
28410,1569
28420,2205
28430,1625
28440,2269
28450,1652
28460,2313
28470,1728
28480,2342
28490,1776
28500,2464
28510,1851
28520,2503
28530,1895
28540,2498
28550,1833
28560,2366
28570,1687
28580,2194
28590,1520
28600,2086
28610,1476
28620,2041
28630,1481
28640,2077
28650,1488
28660,2110
28670,1566
28680,2094
28690,1647
28700,2144
28710,1600
28720,2149
28730,1621
28740,2150
28750,1642
28760,2140
28770,1680
28780,2146
28790,1634
28800,2119
28810,1625
28820,2176
28830,1783
28840,2231
28850,1792
28860,2201
28870,1722
28880,2035
28890,1620
28900,2058
28910,1632
28920,2036
28930,1633
28940,2064
28950,1735
28960,2066
28970,1707
28980,2083
28990,2378
29000,2350
29010,2349
29020,2305
29030,2299
29040,2256
29050,1712
29060,1841
29070,2022
29080,2105
29090,1847
29100,2080
29110,1936
29120,2111
29130,1931
29140,2128
29150,1937
29160,2176
29170,1993
29180,2195
29190,2057
29200,2199
29210,2163
29220,2352
29230,2247
29240,2368
29250,2230
29260,2263
29270,2099
29280,2080
29290,1935
29300,1854
29310,1766
29320,1835
29330,1778
29340,1773
29350,1773
29360,1745
29370,1743
29380,1789
29390,1818
29400,1744
29410,1831
29420,1765
29430,1879
29440,1765
29450,1870
29460,1792
29470,1907
29480,1745
29490,1919
29500,1808
29510,1955
29520,1739
29530,1975
29540,1903
29550,2128
29560,1919
29570,2147
29580,1873
29590,1975
29600,1779
29610,1965
29620,1771
29630,1981
29640,1712
29650,2064
29660,1808
29670,2045
29680,1747
29690,2070
29700,1779
29710,2064
29720,1772
29730,2106
29740,2064
29750,3523
29760,2578
29770,1587
29780,1744
29790,2179
29800,1772
29810,2145
29820,1777
29830,2227
29840,1790
29850,2224
29860,1823
29870,2298
29880,1881
29890,2338
29900,1915
29910,2427
29920,2006
29930,2493
29940,2080
29950,2559
29960,2078
29970,2546
29980,1977
29990,1961
30000,1965
30010,1984
30020,2002
30030,2000
30040,2019
30050,2271
30060,1519
30070,2113
30080,1557
30090,2139
30100,1559
30110,2087
30120,1535
30130,2118
30140,1522
30150,2111
30160,1563
30170,2119
30180,1535
30190,2109
30200,1532
30210,2141
30220,1497
30230,2089
30240,1520
30250,2112
30260,1504
30270,2224
30280,1600
30290,2181
30300,1612
30310,2111
30320,1475
30330,2055
30340,1430
30350,2085
30360,1447
30370,2085
30380,1456
30390,2097
30400,1502
30410,2144
30420,1513
30430,2190
30440,1514
30450,2214
30460,1561
30470,2543
30480,3039
30490,2666
30500,1071
30510,2213
30520,1616
30530,2197
30540,1586
30550,2221
30560,1535
30570,2247
30580,1597
30590,2256
30600,1663
30610,2335
30620,1728
30630,2358
30640,1776
30650,2448
30660,1819
30670,2495
30680,1887
30690,2477
30700,1872
30710,2437
30720,1742
30730,2242
30740,1555
30750,2127
30760,1456
30770,1979
30780,1447
30790,2026
30800,1440
30810,2055
30820,1466
30830,2047
30840,1495
30850,2083
30860,1493
30870,2097
30880,1521
30890,2071
30900,1533
30910,2069
30920,1559
30930,2047
30940,1489
30950,2064
30960,1568
30970,2060
30980,1525
30990,2404
31000,2402
31010,2405
31020,2398
31030,2416
31040,2415
31050,2206
31060,1491
31070,1762
31080,1751
31090,1735
31100,1785
31110,1723
31120,1498
31130,1900
31140,1505
31150,1940
31160,1570
31170,1897
31180,1563
31190,1891
31200,1689
31210,2704
31220,3054
31230,1650
31240,1307
31250,2000
31260,1623
31270,1907
31280,1653
31290,1923
31300,1686
31310,1949
31320,1710
31330,1949
31340,1792
31350,2021
31360,1851
31370,2067
31380,1922
31390,2143
31400,1973
31410,2138
31420,2022
31430,2128
31440,1939
31450,2026
31460,1839
31470,1849
31480,1665
31490,1706
31500,1616
31510,1664
31520,1634
31530,1685
31540,1621
31550,1702
31560,1742
31570,1717
31580,1733
31590,1769
31600,1783
31610,1743
31620,1849
31630,1770
31640,1827
31650,1751
31660,1806
31670,1818
31680,1895
31690,1755
31700,1855
31710,1744
31720,1879
31730,1772
31740,1901
31750,1762
31760,2013
31770,1907
31780,2027
31790,1877
31800,1990
31810,1732
31820,1867
31830,1649
31840,1904
31850,1665
31860,1935
31870,1697
31880,1983
31890,1745
31900,2017
31910,1726
31920,2034
31930,1713
31940,2071
31950,1765
31960,2286
31970,2949
31980,3152
31990,2459
32000,2453
32010,2453
32020,2427
32030,2430
32040,2411
32050,1962
32060,2191
32070,1824
32080,2256
32090,1808
32100,2259
32110,1838
32120,2278
32130,1891
32140,2365
32150,1961
32160,2436
32170,1966
32180,2410
32190,1971
32200,2371
32210,1790
32220,2162
32230,1593
32240,2033
32250,1509
32260,1967
32270,1424
32280,1917
32290,1431
32300,1969
32310,1420
32320,1987
32330,1439
32340,1989
32350,1447
32360,2007
32370,1453
32380,2042
32390,1424
32400,2003
32410,1473
32420,2055
32430,1420
32440,2077
32450,1439
32460,2091
32470,1474
32480,2070
32490,1493
32500,2114
32510,1463
32520,2082
32530,1518
32540,2158
32550,1581
32560,2185
32570,1648
32580,2222
32590,1491
32600,2093
32610,1478
32620,2128
32630,1487
32640,2121
32650,1487
32660,2166
32670,1535
32680,2206
32690,1600
32700,2198
32710,1575
32720,2201
32730,1613
32740,2331
32750,2322
32760,4043
32770,1296
32780,1951
32790,1765
32800,2249
32810,1611
32820,2262
32830,1637
32840,2277
32850,1623
32860,2290
32870,1645
32880,2307
32890,1664
32900,2299
32910,1749
32920,2394
32930,1818
32940,2458
32950,1889
32960,2487
32970,1856
32980,2480
32990,1851
33000,1830
33010,1840
33020,1827
33030,1822
33040,1821
33050,1696
33060,1988
33070,1482
33080,2043
33090,1483
33100,2065
33110,1517
33120,2032
33130,1520
33140,2064
33150,1482
33160,2031
33170,1477
33180,2011
33190,1507
33200,2020
33210,1515
33220,2007
33230,1511
33240,2000
33250,1517
33260,1934
33270,1575
33280,1941
33290,1508
33300,1956
33310,1517
33320,1982
33330,1673
33340,2064
33350,1653
33360,2017
33370,1535
33380,1825
33390,1553
33400,1901
33410,1535
33420,1915
33430,1616
33440,1901
33450,1611
33460,1919
33470,1676
33480,1930
33490,1687
33500,1926
33510,1719
33520,2007
33530,2397
33540,3651
33550,1586
33560,1585
33570,1839
33580,1988
33590,1731
33600,1938
33610,1787
33620,1922
33630,1829
33640,1965
33650,1847
33660,1973
33670,1915
33680,2033
33690,1975
33700,2094
33710,2081
33720,2129
33730,2142
33740,2161
33750,2116
33760,2190
33770,2084
33780,1988
33790,1923
33800,1855
33810,1766
33820,1694
33830,1735
33840,1682
33850,1794
33860,1668
33870,1792
33880,1712
33890,1813
33900,1741
33910,1869
33920,1725
33930,1904
33940,1738
33950,1904
33960,1712
33970,1903
33980,1727
33990,1871
34000,1859
34010,1876
34020,1904
34030,1890
34040,1894
34050,2160
34060,1681
34070,1967
34080,1680
34090,1997
34100,1777
34110,2156
34120,1793
34130,2134
34140,1683
34150,1920
34160,1597
34170,1937
34180,1573
34190,1984
34200,1598
34210,1968
34220,1616
34230,2022
34240,1597
34250,2056
34260,1634
34270,2035
34280,1601
34290,2087
34300,2319
34310,3743
34320,1475
34330,1685
34340,1738
34350,2064
34360,1595
34370,2104
34380,1636
34390,2132
34400,1680
34410,2171
34420,1681
34430,2241
34440,1712
34450,2273
34460,1790
34470,2313
34480,1855
34490,2416
34500,1918
34510,2475
34520,1919
34530,2401
34540,1875
34550,2303
34560,1677
34570,2128
34580,1473
34590,2061
34600,1443
34610,2018
34620,1454
34630,2032
34640,1465
34650,2187
34660,1485
34670,2083
34680,1485
34690,2131
34700,1522
34710,2112
34720,1566
34730,2177
34740,1527
34750,2126
34760,1510
34770,2175
34780,1535
34790,2171
34800,2167
34810,2134
34820,2151
34830,2178
34840,1595
34850,2162
34860,1572
34870,2195
34880,1594
34890,2291
34900,1722
34910,2381
34920,1729
34930,2311
34940,1623
34950,2179
34960,1535
34970,2199
34980,1555
34990,2405
35000,2417
35010,2409
35020,2427
35030,2429
35040,2434
35050,2458
35060,1597
35070,2300
35080,1650
35090,2512
35100,3099
35110,3025
35120,1095
35130,2263
35140,1722
35150,2192
35160,1679
35170,2267
35180,1680
35190,2298
35200,1744
35210,2320
35220,1763
35230,2368
35240,1803
35250,2368
35260,1856
35270,2497
35280,1951
35290,2517
35300,2004
35310,2538
35320,1959
35330,2458
35340,1872
35350,2291
35360,1662
35370,2125
35380,1586
35390,2047
35400,1517
35410,2022
35420,1596
35430,2037
35440,1587
35450,2080
35460,1620
35470,2085
35480,1655
35490,2133
35500,1671
35510,2081
35520,1699
35530,2083
35540,1680
35550,2086
35560,1725
35570,2074
35580,1721
35590,2043
35600,1714
35610,2045
35620,1715
35630,2016
35640,1731
35650,2006
35660,1733
35670,1954
35680,1839
35690,2178
35700,1871
35710,2111
35720,1823
35730,1987
35740,1783
35750,1971
35760,1765
35770,1989
35780,1761
35790,1943
35800,1831
35810,1983
35820,1837
35830,1986
35840,1848
35850,1982
35860,1871
35870,2007
35880,2223
35890,3622
35900,2302
35910,1483
35920,1940
35930,2006
35940,1933
35950,1999
35960,1953
35970,1968
35980,2000
35990,2754
36000,2779
36010,2768
36020,2793
36030,2771
36040,2768
36050,2368
36060,2227
36070,2210
36080,2352
36090,2258
36100,2321
36110,2199
36120,2271
36130,2059
36140,2082
36150,1847
36160,1923
36170,1697
36180,1855
36190,1663
36200,1837
36210,1680
36220,1837
36230,1653
36240,1842
36250,1634
36260,1891
36270,1629
36280,1888
36290,1658
36300,1875
36310,1608
36320,1886
36330,1597
36340,1900
36350,1607
36360,1917
36370,1622
36380,1935
36390,1638
36400,1951
36410,1568
36420,1925
36430,1616
36440,2027
36450,1786
36460,2146
36470,1737
36480,2089
36490,1629
36500,1978
36510,1533
36520,1994
36530,1533
36540,2017
36550,1595
36560,2043
36570,1583
36580,2046
36590,1599
36600,2095
36610,1598
36620,2089
36630,1623
36640,2363
36650,2924
36660,3068
36670,1089
36680,2000
36690,1653
36700,2120
36710,1581
36720,2113
36730,1600
36740,2157
36750,1552
36760,2173
36770,1663
36780,2213
36790,1708
36800,2288
36810,1744
36820,2413
36830,1836
36840,2448
36850,1865
36860,2541
36870,1911
36880,2480
36890,1753
36900,2352
36910,1647
36920,2140
36930,1495
36940,2118
36950,1535
36960,2093
36970,1450
36980,2122
36990,2118
37000,2096
37010,2095
37020,2086
37030,2077
37040,2066
37050,1786
37060,2123
37070,1616
37080,2221
37090,1535
37100,2190
37110,1552
37120,2161
37130,1523
37140,2178
37150,1495
37160,2160
37170,1497
37180,2159
37190,1505
37200,2117
37210,1535
37220,2297
37230,1641
37240,2282
37250,1578
37260,2127
37270,1507
37280,2107
37290,1502
37300,2084
37310,1552
37320,2121
37330,1530
37340,2153
37350,1526
37360,2163
37370,1577
37380,2148
37390,1570
37400,2164
37410,1808
37420,3622
37430,2509
37440,1622
37450,1535
37460,2283
37470,1607
37480,2179
37490,1658
37500,2190
37510,1699
37520,2265
37530,1655
37540,2287
37550,1787
37560,2319
37570,1855
37580,2394
37590,1927
37600,2460
37610,1971
37620,2497
37630,2029
37640,2480
37650,2007
37660,2383
37670,1861
37680,2207
37690,1702
37700,2054
37710,1647
37720,2064
37730,1613
37740,2032
37750,1642
37760,2037
37770,1668
37780,2045
37790,1687
37800,2055
37810,1707
37820,2084
37830,1763
37840,2055
37850,1735
37860,2064
37870,1770
37880,2034
37890,1782
37900,2000
37910,1811
37920,2043
37930,1803
37940,1998
37950,1822
37960,2012
37970,1806
37980,2001
37990,1968
38000,1945
38010,1916
38020,1950
38030,1950
38040,1947
38050,2077
38060,1906
38070,1847
38080,1948
38090,1818
38100,1899
38110,1859
38120,1909
38130,1851
38140,1909
38150,1873
38160,1894
38170,1904
38180,1884
38190,1920
38200,2205
38210,3383
38220,2641
38230,1404
38240,1845
38250,2029
38260,1828
38270,1951
38280,1889
38290,1967
38300,1882
38310,2016
38320,1965
38330,2077
38340,1931
38350,2180
38360,1985
38370,2215
38380,2057
38390,2320
38400,2129
38410,2366
38420,2144
38430,2341
38440,2092
38450,2239
38460,1891
38470,2115
38480,1757
38490,1947
38500,1692
38510,1935
38520,1551
38530,1530
38540,1557
38550,1520
38560,1522
38570,2029
38580,1680
38590,2021
38600,1664
38610,2012
38620,1669
38630,2021
38640,1648
38650,2013
38660,1640
38670,2061
38680,1637
38690,2086
38700,1657
38710,2090
38720,1700
38730,2157
38740,1648
38750,2160
38760,1701
38770,2192
38780,1843
38790,2291
38800,1774
38810,2229
38820,1669
38830,2134
38840,1626
38850,2180
38860,1637
38870,2146
38880,1626
38890,2181
38900,1647
38910,2230
38920,1664
38930,2206
38940,1697
38950,2241
38960,1655
38970,2509
38980,3144
38990,2225
39000,2211
39010,2220
39020,2232
39030,2255
39040,2246
39050,2475
39060,1683
39070,2318
39080,1760
39090,2297
39100,1779
39110,2340
39120,1771
39130,2387
39140,1819
39150,2466
39160,1842
39170,2516
39180,1870
39190,2526
39200,1883
39210,2456
39220,1758
39230,2301
39240,1597
39250,2133
39260,1494
39270,2100
39280,1431
39290,2058
39300,1401
39310,2064
39320,1457
39330,2102
39340,1460
39350,2110
39360,1507
39370,2145
39380,1515
39390,2145
39400,1520
39410,2192
39420,1520
39430,2159
39440,1555
39450,2148
39460,1535
39470,2176
39480,1571
39490,2191
39500,1585
39510,2173
39520,1608
39530,2334
39540,1715
39550,2290
39560,1702
39570,2246
39580,1535
39590,2096
39600,1575
39610,2129
39620,1575
39630,2148
39640,1579
39650,2164
39660,1617
39670,2133
39680,1632
39690,2192
39700,1655
39710,2187
39720,1712
39730,2928
39740,3248
39750,1925
39760,1328
39770,2272
39780,1647
39790,2147
39800,1711
39810,2192
39820,1714
39830,2226
39840,1791
39850,2226
39860,1830
39870,2304
39880,1897
39890,2320
39900,1957
39910,2377
39920,2032
39930,2448
39940,2113
39950,2427
39960,2032
39970,2353
39980,1934
39990,2407
40000,2433
40010,2469
40020,2405
40030,2417
40040,2416
40050,2173
40060,1667
40070,1969
40080,1713
40090,1973
40100,1717
40110,1956
40120,1744
40130,1940
40140,1759
40150,1925
40160,1674
40170,1922
40180,1759
40190,1914
40200,1709
40210,1921
40220,1741
40230,1863
40240,1757
40250,1887
40260,1776
40270,1894
40280,1811
40290,1927
40300,1938
40310,1953
40320,1939
40330,1925
40340,1808
40350,1823
40360,1787
40370,1808
40380,1789
40390,1770
40400,1877
40410,1792
40420,1863
40430,1851
40440,1892
40450,1808
40460,1924
40470,1839
40480,1937
40490,2099
40500,3263
40510,2691
40520,1389
40530,1780
40540,2095
40550,1835
40560,2013
40570,1856
40580,2039
40590,1862
40600,2071
40610,1927
40620,2153
40630,1920
40640,2195
40650,2000
40660,2228
40670,2022
40680,2325
40690,2112
40700,2383
40710,2128
40720,2387
40730,2079
40740,2313
40750,1907
40760,2115
40770,1712
40780,2045
40790,1616
40800,1946
40810,1648
40820,2011
40830,1634
40840,2034
40850,1653
40860,2075
40870,1673
40880,2076
40890,1645
40900,2045
40910,1680
40920,2101
40930,1679
40940,2118
40950,1675
40960,2114
40970,1702
40980,2166
40990,2325
41000,2318
41010,2302
41020,2297
41030,2279
41040,2279
41050,1898
41060,2298
41070,1787
41080,2309
41090,1699
41100,2170
41110,1590
41120,2112
41130,1587
41140,2097
41150,1535
41160,2167
41170,1527
41180,2131
41190,1497
41200,2191
41210,1584
41220,2145
41230,1559
41240,2175
41250,1729
41260,3258
41270,2836
41280,1731
41290,1418
41300,2326
41310,1559
41320,2204
41330,1601
41340,2244
41350,1621
41360,2259
41370,1653
41380,2313
41390,1710
41400,2336
41410,1744
41420,2416
41430,1837
41440,2447
41450,1901
41460,2523
41470,1921
41480,2541
41490,1909
41500,2451
41510,1746
41520,2250
41530,1583
41540,2159
41550,1453
41560,2133
41570,1494
41580,2079
41590,1468
41600,2155
41610,1520
41620,2183
41630,1535
41640,2176
41650,1575
41660,2174
41670,1587
41680,2197
41690,1598
41700,2269
41710,1593
41720,2224
41730,1561
41740,2203
41750,1603
41760,2191
41770,1583
41780,2210
41790,1641
41800,2198
41810,1571
41820,2224
41830,1723
41840,2310
41850,1727
41860,2295
41870,1694
41880,2166
41890,1597
41900,2137
41910,1644
41920,2117
41930,1647
41940,2105
41950,1613
41960,2153
41970,1615
41980,2182
41990,3028
42000,3031
42010,2967
42020,2942
42030,2927
42040,2903
42050,2054
42060,1678
42070,1799
42080,2190
42090,1744
42100,2171
42110,1743
42120,2111
42130,1731
42140,2122
42150,1755
42160,2159
42170,1793
42180,2177
42190,1874
42200,2224
42210,1911
42220,2265
42230,2013
42240,2193
42250,2222
42260,2209
42270,2224
42280,2131
42290,1760
42300,1961
42310,1642
42320,1862
42330,1570
42340,1831
42350,1609
42360,1851
42370,1621
42380,1833
42390,1711
42400,1857
42410,1693
42420,1883
42430,1753
42440,1873
42450,1729
42460,1841
42470,1798
42480,1828
42490,1729
42500,1850
42510,1770
42520,1806
42530,1745
42540,1871
42550,1818
42560,1838
42570,1872
42580,1999
42590,1950
42600,1981
42610,1936
42620,1861
42630,1811
42640,1805
42650,1885
42660,1825
42670,1861
42680,1830
42690,1936
42700,1869
42710,1954
42720,1856
42730,2010
42740,1849
42750,2033
42760,1915
42770,2139
42780,2832
42790,3529
42800,1456
42810,1809
42820,1938
42830,2072
42840,1821
42850,2101
42860,1866
42870,2111
42880,1863
42890,2139
42900,1949
42910,2181
42920,1923
42930,2242
42940,1971
42950,2347
42960,2041
42970,2403
42980,2096
42990,2043
43000,2047
43010,2059
43020,2065
43030,2035
43040,2066
43050,2343
43060,1657
43070,2067
43080,1587
43090,2023
43100,1601
43110,2093
43120,1618
43130,1967
43140,1634
43150,2087
43160,1601
43170,2089
43180,1646
43190,2096
43200,1597
43210,2065
43220,1566
43230,2081
43240,1535
43250,2096
43260,1584
43270,2086
43280,1586
43290,2125
43300,1610
43310,2301
43320,1686
43330,2258
43340,1648
43350,2138
43360,1532
43370,2087
43380,1575
43390,2111
43400,1523
43410,2121
43420,1570
43430,2160
43440,1573
43450,2190
43460,1619
43470,2180
43480,1618
43490,2209
43500,1840
43510,3384
43520,2768
43530,1728
43540,1491
43550,2365
43560,1586
43570,2258
43580,1675
43590,2263
43600,1661
43610,2347
43620,1662
43630,2346
43640,1747
43650,2432
43660,1760
43670,2465
43680,1873
43690,2555
43700,1952
43710,2594
43720,1971
43730,2606
43740,1927
43750,2498
43760,1764
43770,2257
43780,1600
43790,2160
43800,1474
43810,2031
43820,1463
43830,2112
43840,1449
43850,2122
43860,1473
43870,2112
43880,1468
43890,2123
43900,1523
43910,2152
43920,1530
43930,2182
43940,1535
43950,2144
43960,1553
43970,2166
43980,1535
43990,2533
44000,2535
44010,2550
44020,2553
44030,2544
44040,2543
44050,2428
44060,1710
44070,2279
44080,1618
44090,2135
44100,1567
44110,2127
44120,1595
44130,2113
44140,1607
44150,2110
44160,1633
44170,2157
44180,1642
44190,2158
44200,1695
44210,2155
44220,1698
44230,2279
44240,2678
44250,3520
44260,1268
44270,1936
44280,1858
44290,2141
44300,1682
44310,2160
44320,1770
44330,2193
44340,1833
44350,2222
44360,1845
44370,2249
44380,1926
44390,2293
44400,1968
44410,2342
44420,2081
44430,2436
44440,2099
44450,2449
44460,2115
44470,2363
44480,2026
44490,2158
44500,1811
44510,1998
44520,1706
44530,1936
44540,1647
44550,1899
44560,1695
44570,1895
44580,1705
44590,1861
44600,1723
44610,1893
44620,1820
44630,1928
44640,1796
44650,1949
44660,1836
44670,1927
44680,1825
44690,1931
44700,1857
44710,1927
44720,1847
44730,1921
44740,1870
44750,1881
44760,1883
44770,1987
44780,2055
44790,2000
44800,2000
44810,1920
44820,1920
44830,1796
44840,1882
44850,1790
44860,1893
44870,1847
44880,1905
44890,1792
44900,1986
44910,1836
44920,1965
44930,1840
44940,2000
44950,1834
44960,2063
44970,2225
44980,3686
44990,2485
45000,2459
45010,2496
45020,2481
45030,2480
45040,2435
45050,1999
45060,2087
45070,1917
45080,2130
45090,1887
45100,2194
45110,1883
45120,2202
45130,1907
45140,2288
45150,1978
45160,2362
45170,2033
45180,2387
45190,2054
45200,2370
45210,1935
45220,2238
45230,1774
45240,2085
45250,1648
45260,1984
45270,1568
45280,1968
45290,1527
45300,1995
45310,1535
45320,2000
45330,1604
45340,2064
45350,1609
45360,2120
45370,1596
45380,2085
45390,1568
45400,2114
45410,1638
45420,2118
45430,1565
45440,2138
45450,1579
45460,2129
45470,1581
45480,2080
45490,1623
45500,2224
45510,1711
45520,2245
45530,1638
45540,2141
45550,1526
45560,2078
45570,1491
45580,2134
45590,1514
45600,2053
45610,1535
45620,2155
45630,1535
45640,2191
45650,1575
45660,2171
45670,1605
45680,2219
45690,1707
45700,2929
45710,3159
45720,2062
45730,1269
45740,2341
45750,1623
45760,2254
45770,1627
45780,2309
45790,1670
45800,2279
45810,1694
45820,2368
45830,1765
45840,2349
45850,1795
45860,2448
45870,1899
45880,2541
45890,1931
45900,2581
45910,1952
45920,2615
45930,1911
45940,2487
45950,1751
45960,1503
45970,1480
45980,1511
45990,1955
46000,1959
46010,1953
46020,1949
46030,1936
46040,1920
46050,1728
46060,2117
46070,1557
46080,2178
46090,1527
46100,2208
46110,1566
46120,2176
46130,1535
46140,2121
46150,1567
46160,2141
46170,1525
46180,2161
46190,1581
46200,2158
46210,1583
46220,2128
46230,1600
46240,2121
46250,1572
46260,2146
46270,1662
46280,2267
46290,1712
46300,2240
46310,1730
46320,2089
46330,1557
46340,2062
46350,1600
46360,2059
46370,1555
46380,2113
46390,1627
46400,2080
46410,1645
46420,2083
46430,1669
46440,2082
46450,1701
46460,2090
46470,1887
46480,3145
46490,3003
46500,1722
46510,1535
46520,2226
46530,1720
46540,2107
46550,1764
46560,2135
46570,1795
46580,2130
46590,1890
46600,2168
46610,1886
46620,2188
46630,1947
46640,2287
46650,2019
46660,2347
46670,2137
46680,2359
46690,2153
46700,2335
46710,2173
46720,2305
46730,1989
46740,2097
46750,1822
46760,1919
46770,1712
46780,1895
46790,1693
46800,1866
46810,1760
46820,1856
46830,1755
46840,1868
46850,1808
46860,1904
46870,1802
46880,1888
46890,1842
46900,1874
46910,1834
46920,1840
46930,1834
46940,1841
46950,1894
46960,1843
46970,1884
46980,1815
46990,1918
47000,1933
47010,1930
47020,1936
47030,1936
47040,1941
47050,2118
47060,1832
47070,1995
47080,1985
47090,2117
47100,1905
47110,2096
47120,1840
47130,1936
47140,1761
47150,1954
47160,1703
47170,1951
47180,1754
47190,1939
47200,1737
47210,2032
47220,1732
47230,2071
47240,1754
47250,2046
47260,1759
47270,2076
47280,2016
47290,3472
47300,2688
47310,1585
47320,1690
47330,2204
47340,1737
47350,2128
47360,1776
47370,2147
47380,1819
47390,2186
47400,1809
47410,2247
47420,1871
47430,2272
47440,1917
47450,2362
47460,1937
47470,2426
47480,2003
47490,2482
47500,2039
47510,2493
47520,1968
47530,2416
47540,1798
47550,2220
47560,1628
47570,2032
47580,1558
47590,2022
47600,1529
47610,2023
47620,1534
47630,2074
47640,1554
47650,2093
47660,1535
47670,2143
47680,1598
47690,2109
47700,1583
47710,2183
47720,1575
47730,2145
47740,1600
47750,2160
47760,1582
47770,2171
47780,1586
47790,2193
47800,1535
47810,2230
47820,1648
47830,2182
47840,1686
47850,2391
47860,1718
47870,2361
47880,1674
47890,2199
47900,1561
47910,2227
47920,1609
47930,2224
47940,1579
47950,2233
47960,1636
47970,2234
47980,1603
47990,2974
48000,2996
48010,3034
48020,3052
48030,3071
48040,3098
48050,3935
48060,2716
48070,1806
48080,1509
48090,2381
48100,1664
48110,2283
48120,1633
48130,2270
48140,1645
48150,2247
48160,1669
48170,2305
48180,1680
48190,2341
48200,1758
48210,2411
48220,1805
48230,2474
48240,1885
48250,2471
48260,1913
48270,2513
48280,1853
48290,2399
48300,1729
48310,2160
48320,1595
48330,2090
48340,1484
48350,2001
48360,1489
48370,2071
48380,1471
48390,2030
48400,1509
48410,2069
48420,1556
48430,2110
48440,1571
48450,2128
48460,1593
48470,2096
48480,1583
48490,2125
48500,1570
48510,2064
48520,1595
48530,2055
48540,1587
48550,2038
48560,1615
48570,1975
48580,1601
48590,2047
48600,1651
48610,2175
48620,1644
48630,2123
48640,1607
48650,1969
48660,1611
48670,1963
48680,1623
48690,1994
48700,1643
48710,1976
48720,1664
48730,2000
48740,1697
48750,2005
48760,1697
48770,2047
48780,1767
48790,2111
48800,2337
48810,3741
48820,1697
48830,1607
48840,1862
48850,2033
48860,1807
48870,2032
48880,1868
48890,2061
48900,1897
48910,2071
48920,1939
48930,2094
48940,1981
48950,2176
48960,2062
48970,2189
48980,2116
48990,2737
49000,2768
49010,2735
49020,2745
49030,2738
49040,2725
49050,2282
49060,1961
49070,1888
49080,1808
49090,1779
49100,1766
49110,1705
49120,1725
49130,1711
49140,1757
49150,1747
49160,1765
49170,1754
49180,1809
49190,1776
49200,1873
49210,1746
49220,1873
49230,1778
49240,1895
49250,1733
49260,1914
49270,1751
49280,1941
49290,1744
49300,1891
49310,1754
49320,1947
49330,1751
49340,1940
49350,1708
49360,2009
49370,1733
49380,2070
49390,1882
49400,2147
49410,1846
49420,2053
49430,1663
49440,1985
49450,1677
49460,2007
49470,1677
49480,2005
49490,1727
49500,2054
49510,1699
49520,2055
49530,1708
49540,2128
49550,1712
49560,2132
49570,1793
49580,2815
49590,3282
49600,1989
49610,1395
49620,2294
49630,1757
49640,2172
49650,1769
49660,2215
49670,1771
49680,2237
49690,2336
49700,2353
49710,2348
49720,2321
49730,1829
49740,2383
49750,1887
49760,2448
49770,1995
49780,2533
49790,2027
49800,2559
49810,2033
49820,2482
49830,1854
49840,2272
49850,1675
49860,2177
49870,1552
49880,2083
49890,1601
49900,2128
49910,1552
49920,2133
49930,1535
49940,2186
49950,1552
49960,2190
49970,1584
49980,2203
49990,2135
50000,2128
50010,2129
50020,2128
50030,2132
50040,2107
50050,1779
50060,2195
50070,1552
50080,2283
50090,1613
50100,2228
50110,1578
50120,2220
50130,1664
50140,2368
50150,1679
50160,2319
50170,1619
50180,2192
50190,1535
50200,2169
50210,1514
50220,2191
50230,1534
50240,2202
50250,1563
50260,2159
50270,1599
50280,2222
50290,1564
50300,2235
50310,1558
50320,2225
50330,1946
50340,3843
50350,2115
50360,1695
50370,1558
50380,2274
50390,1581
50400,2221
50410,1650
50420,2257
50430,1699
50440,2269
50450,1727
50460,2333
50470,1749
50480,2339
50490,1840
50500,2407
50510,1892
50520,2491
50530,1945
50540,2624
50550,1943
50560,2510
50570,1921
50580,2401
50590,1730
50600,2187
50610,1599
50620,2065
50630,1535
50640,2034
50650,1527
50660,2017
50670,1559
50680,2063
50690,1584
50700,2030
50710,1612
50720,2033
50730,1639
50740,2026
50750,1633
50760,2068
50770,1648
50780,2032
50790,1650
50800,1991
50810,1708
50820,1991
50830,1661
50840,2027
50850,1675
50860,2105
50870,1886
50880,2113
50890,1826
50900,2128
50910,1665
50920,1971
50930,1766
50940,1971
50950,1710
50960,1954
50970,1728
50980,1975
50990,1917
51000,1913
51010,1914
51020,1885
51030,1920
51040,1925
51050,2055
51060,2223
51070,3087
51080,3136
51090,1365
51100,1789
51110,1955
51120,1965
51130,1848
51140,1990
51150,1889
51160,1981
51170,1919
51180,1968
51190,1995
51200,2007
51210,2005
51220,2037
51230,2110
51240,2097
51250,2174
51260,2179
51270,2251
51280,2138
51290,2247
51300,2181
51310,2121
51320,1955
51330,2002
51340,1815
51350,1840
51360,1655
51370,1842
51380,1635
51390,1798
51400,1683
51410,1792
51420,1665
51430,1895
51440,1658
51450,1909
51460,1683
51470,1926
51480,1725
51490,1925
51500,1680
51510,1936
51520,1683
51530,1981
51540,1679
51550,1970
51560,1677
51570,1987
51580,1713
51590,2112
51600,1850
51610,2106
51620,1839
51630,2074
51640,1658
51650,2059
51660,1648
51670,2066
51680,1662
51690,2045
51700,1689
51710,2074
51720,1705
51730,2169
51740,1702
51750,2122
51760,1727
51770,2155
51780,1795
51790,2864
51800,3271
51810,2022
51820,1317
51830,2304
51840,1715
51850,2140
51860,1718
51870,2218
51880,1730
51890,2272
51900,1803
51910,2297
51920,1807
51930,2339
51940,1834
51950,2422
51960,1881
51970,2496
51980,1957
51990,2265
52000,2279
52010,2285
52020,2290
52030,2317
52040,2319
52050,2482
52060,1603
52070,2186
52080,1566
52090,2094
52100,1471
52110,2095
52120,1425
52130,2080
52140,1493
52150,2079
52160,1511
52170,2131
52180,1508
52190,2128
52200,1501
52210,2191
52220,1509
52230,2131
52240,1501
52250,2153
52260,1530
52270,2160
52280,1527
52290,2145
52300,1488
52310,2250
52320,1715
52330,2261
52340,1681
52350,2235
52360,1522
52370,2084
52380,1520
52390,2133
52400,1498
52410,2173
52420,1524
52430,2160
52440,1563
52450,2178
52460,1559
52470,2222
52480,1577
52490,2198
52500,1581
52510,2354
52520,2543
52530,3681
52540,1173
52550,2004
52560,1730
52570,2215
52580,1671
52590,2246
52600,1692
52610,2253
52620,1719
52630,2285
52640,1775
52650,2335
52660,1797
52670,2394
52680,1863
52690,2451
52700,1968
52710,2531
52720,2015
52730,2517
52740,2021
52750,2480
52760,1905
52770,2331
52780,1761
52790,2112
52800,1645
52810,2000
52820,1574
52830,2029
52840,1584
52850,2002
52860,1634
52870,2058
52880,1653
52890,2064
52900,1630
52910,2070
52920,1665
52930,2016
52940,1712
52950,2076
52960,1685
52970,2063
52980,1698
52990,2451
53000,2480
53010,2478
53020,2512
53030,2480
53040,2506
53050,2189
53060,1747
53070,2189
53080,1894
53090,2135
53100,1825
53110,2026
53120,1701
53130,1971
53140,1722
53150,1915
53160,1729
53170,1931
53180,1760
53190,1941
53200,1744
53210,1913
53220,1803
53230,1954
53240,1810
53250,1960
53260,1808
53270,2242
53280,3265
53290,2714
53300,1290
53310,1874
53320,1968
53330,1890
53340,1859
53350,1920
53360,1904
53370,1973
53380,1957
53390,1984
53400,2009
53410,2067
53420,2063
53430,2026
53440,2035
53450,2096
53460,2228
53470,2170
53480,2264
53490,2219
53500,2294
53510,2074
53520,2160
53530,1968
53540,2007
53550,1808
53560,1904
53570,1699
53580,1913
53590,1665
53600,1904
53610,1735
53620,1917
53630,1739
53640,1972
53650,1689
53660,1979
53670,1764
53680,2003
53690,1743
53700,2022
53710,1713
53720,2061
53730,1744
53740,2011
53750,1709
53760,2044
53770,1727
53780,2176
53790,1684
53800,2075
53810,1766
53820,2193
53830,1878
53840,2245
53850,1823
53860,2118
53870,1726
53880,2103
53890,1686
53900,2117
53910,1649
53920,2170
53930,1711
53940,2143
53950,1677
53960,2199
53970,1731
53980,2199
53990,1872
54000,1859
54010,1845
54020,1831
54030,1819
54040,1824
54050,1398
54060,2218
54070,1792
54080,2218
54090,1710
54100,2225
54110,1725
54120,2272
54130,1728
54140,2323
54150,1773
54160,2332
54170,1792
54180,2377
54190,1851
54200,2450
54210,1916
54220,2505
54230,1969
54240,2559
54250,1938
54260,2512
54270,1833
54280,2294
54290,1597
54300,2156
54310,1474
54320,2082
54330,1450
54340,2097
54350,1439
54360,2074
54370,1433
54380,2099
54390,1478
54400,2140
54410,1527
54420,2143
54430,1559
54440,2176
54450,1525
54460,2171
54470,1520
54480,2137
54490,1561
54500,2171
54510,1499
54520,2187
54530,1506
54540,2167
54550,1535
54560,2182
54570,1561
54580,2253
54590,1694
54600,2275
54610,1648
54620,2225
54630,1491
54640,2172
54650,1527
54660,2141
54670,1489
54680,2157
54690,1535
54700,2175
54710,1535
54720,2187
54730,1606
54740,2223
54750,1535
54760,2202
54770,1648
54780,2544
54790,3083
54800,2543
54810,1040
54820,2184
54830,1655
54840,2134
54850,1619
54860,2209
54870,1648
54880,2193
54890,1700
54900,2235
54910,1712
54920,2288
54930,1790
54940,2351
54950,1849
54960,2354
54970,1952
54980,2474
54990,2015
55000,1986
55010,1983
55020,1973
55030,1968
55040,1962
55050,1867
55060,1991
55070,1597
55080,1983
55090,1559
55100,1970
55110,1558
55120,1954
55130,1535
55140,1975
55150,1603
55160,1963
55170,1628
55180,1972
55190,1633
55200,1959
55210,1675
55220,1974
55230,1674
55240,1968
55250,1664
55260,1942
55270,1680
55280,1938
55290,1678
55300,1945
55310,1727
55320,1978
55330,1735
55340,1953
55350,1805
55360,2108
55370,1826
55380,2109
55390,1839
55400,1937
55410,1718
55420,1904
55430,1744
55440,1875
55450,1790
55460,1914
55470,1797
55480,1910
55490,1859
55500,1931
55510,1853
55520,1904
55530,1874
55540,1952
55550,2069
55560,2935
55570,3152
55580,1520
55590,1725
55600,2044
55610,1953
55620,1919
55630,1989
55640,1951
55650,1989
55660,1985
55670,2059
55680,1990
55690,2121
55700,2021
55710,2154
55720,2074
55730,2253
55740,2179
55750,2331
55760,2226
55770,2398
55780,2209
55790,2352
55800,2098
55810,2209
55820,1911
55830,2017
55840,1741
55850,1980
55860,1712
55870,1954
55880,1703
55890,1937
55900,1743
55910,1997
55920,1723
55930,2043
55940,1726
55950,2080
55960,1718
55970,2093
55980,1728
55990,1967
56000,1989
56010,1973
56020,1985
56030,2000
56040,2001
56050,2315
56060,1679
56070,2146
56080,1726
56090,2129
56100,1733
56110,2096
56120,1712
56130,2155
56140,1729
56150,2222
56160,1828
56170,2273
56180,1802
56190,2213
56200,1668
56210,2079
56220,1595
56230,2118
56240,1577
56250,2132
56260,1616
56270,2167
56280,1649
56290,2147
56300,1641
56310,2191
56320,1658
56330,2156
56340,1627
56350,2478
56360,2910
56370,3244
56380,1109
56390,2096
56400,1744
56410,2195
56420,1619
56430,2239
56440,1648
56450,2281
56460,1673
56470,2279
56480,1703
56490,2315
56500,1754
56510,2341
56520,1808
56530,2414
56540,1875
56550,2515
56560,1894
56570,2554
56580,1930
56590,2521
56600,1842
56610,2391
56620,1671
56630,2212
56640,1535
56650,2149
56660,1495
56670,2133
56680,1443
56690,2182
56700,1535
56710,2123
56720,1600
56730,2191
56740,1605
56750,2293
56760,1615
56770,2256
56780,1641
56790,2240
56800,1653
56810,2266
56820,1611
56830,2271
56840,1613
56850,2247
56860,1647
56870,2256
56880,1647
56890,2245
56900,1739
56910,2395
56920,1699
56930,2383
56940,1680
56950,2230
56960,1581
56970,2179
56980,1597
56990,2427
57000,2432
57010,2443
57020,2448
57030,2445
57040,2459
57050,2415
57060,1663
57070,2243
57080,1667
57090,2221
57100,1942
57110,3579
57120,2591
57130,1623
57140,1733
57150,1749
57160,1744
57170,1748
57180,1766
57190,2112
57200,1651
57210,2085
57220,1642
57230,2160
57240,1637
57250,2147
57260,1750
57270,2273
57280,1773
57290,2274
57300,1853
57310,2288
57320,1924
57330,2355
57340,1916
57350,2225
57360,1764
57370,2083
57380,1598
57390,1933
57400,1576
57410,1891
57420,1584
57430,1904
57440,1647
57450,1957
57460,1677
57470,1937
57480,1662
57490,1994
57500,1723
57510,2010
57520,1771
57530,2032
57540,1761
57550,2013
57560,1775
57570,1995
57580,1744
57590,1961
57600,1789
57610,1988
57620,1742
57630,2013
57640,1936
57650,2070
57660,1905
57670,2002
57680,1805
57690,1877
57700,1781
57710,1834
57720,1802
57730,1872
57740,1875
57750,1887
57760,1861
57770,1876
57780,1846
57790,1934
57800,1920
57810,1882
57820,1923
57830,2177
57840,3147
57850,2897
57860,1360
57870,1806
57880,2045
57890,1869
57900,1988
57910,1935
57920,1985
57930,1921
57940,2067
57950,1930
57960,2087
57970,1981
57980,2155
57990,2850
58000,2841
58010,2829
58020,2858
58030,2833
58040,2820
58050,2401
58060,2355
58070,2174
58080,2288
58090,1957
58100,2099
58110,1765
58120,1971
58130,1678
58140,1945
58150,1628
58160,1914
58170,1679
58180,1939
58190,1652
58200,1991
58210,1641
58220,1963
58230,1602
58240,2023
58250,1664
58260,2023
58270,1643
58280,2031
58290,1641
58300,2074
58310,1613
58320,2099
58330,1670
58340,2063
58350,1664
58360,2160
58370,1825
58380,2172
58390,1781
58400,2128
58410,1594
58420,2030
58430,1595
58440,2061
58450,1574
58460,2073
58470,1616
58480,2073
58490,1603
58500,2121
58510,1601
58520,2096
58530,1645
58540,2175
58550,1654
58560,2587
58570,3136
58580,2544
58590,1120
58600,2240
58610,1702
58620,2160
58630,1670
58640,2220
58650,1654
58660,2239
58670,1677
58680,2258
58690,1744
58700,2320
58710,1778
58720,2382
58730,1829
58740,2480
58750,1845
58760,2548
58770,1968
58780,2587
58790,1952
58800,2512
58810,1815
58820,2327
58830,1610
58840,2178
58850,1522
58860,2125
58870,1502
58880,2112
58890,1530
58900,2103
58910,1557
58920,2193
58930,1520
58940,2219
58950,1555
58960,2172
58970,1563
58980,2185
58990,2061
59000,2053
59010,2045
59020,2026
59030,2039
59040,2021
59050,1776
59060,2135
59070,1593
59080,2228
59090,1579
59100,2245
59110,1685
59120,2315
59130,1677
59140,2254
59150,1535
59160,2115
59170,1489
59180,2128
59190,1535
59200,2128
59210,1535
59220,2141
59230,1575
59240,2191
59250,1611
59260,2130
59270,1605
59280,2192
59290,1637
59300,2208
59310,2127
59320,4011
59330,1744
59340,1731
59350,1696
59360,2241
59370,1591
59380,2199
59390,1680
59400,2236
59410,1681
59420,2256
59430,1774
59440,2283
59450,1776
59460,2327
59470,1839
59480,2383
59490,1951
59500,2446
59510,2027
59520,2505
59530,2040
59540,2432
59550,1945
59560,2325
59570,1765
59580,2125
59590,1630
59600,1990
59610,1602
59620,1929
59630,1594
59640,1909
59650,1591
59660,2001
59670,1622
59680,1989
59690,1666
59700,2019
59710,1727
59720,2016
59730,1708
59740,1968
59750,1708
59760,1993
59770,1712
59780,1968
59790,1726
59800,1997
59810,1728
59820,1959
59830,1731
59840,1994
59850,1800
59860,2111
59870,1875
59880,2083
59890,1828
59900,1914
59910,1735
59920,1859
59930,1766
59940,1877
59950,1750
59960,1911
59970,1799
59980,1858
59990,1908
