timestamp,value
0,306
10,367
20,413
30,451
40,490
50,2833
60,0
70,2415
80,0
90,2137
100,0
110,1970
120,0
130,1732
140,0
150,1514
160,0
170,1767
180,0
190,3383
200,0
210,795
220,0
230,1711
240,0
250,1723
260,0
270,1855
280,0
290,2154
300,0
310,2313
320,0
330,2603
340,0
350,2908
360,0
370,3287
380,0
390,3511
400,0
410,3536
420,0
430,3423
440,0
450,3136
460,0
470,3150
480,0
490,3218
500,0
510,3399
520,0
530,3645
540,0
550,3728
560,0
570,4095
580,0
590,4095
600,0
610,4095
620,0
630,4095
640,0
650,4095
660,0
670,4095
680,0
690,4095
700,0
710,4095
720,0
730,4095
740,0
750,4095
760,0
770,4095
780,0
790,4095
800,0
810,4095
820,0
830,4095
840,0
850,4095
860,0
870,4095
880,1387
890,4095
900,0
910,4095
920,0
930,4095
940,0
950,4095
960,0
970,4095
980,0
990,4095
1000,4095
1010,4095
1020,4095
1030,4095
1040,4095
1050,4095
1060,2982
1070,4095
1080,2677
1090,4095
1100,1586
1110,4095
1120,1104
1130,4095
1140,307
1150,4095
1160,0
1170,4095
1180,0
1190,4095
1200,0
1210,4095
1220,0
1230,4095
1240,0
1250,4095
1260,0
1270,4095
1280,0
1290,4095
1300,0
1310,4095
1320,0
1330,4095
1340,0
1350,4095
1360,0
1370,4095
1380,0
1390,4095
1400,0
1410,4095
1420,0
1430,4095
1440,0
1450,4095
1460,0
1470,4095
1480,0
1490,4095
1500,0
1510,4095
1520,0
1530,4095
1540,0
1550,4095
1560,0
1570,4095
1580,0
1590,4095
1600,0
1610,4095
1620,706
1630,4095
1640,0
1650,4095
1660,0
1670,4095
1680,0
1690,4095
1700,0
1710,4095
1720,0
1730,4095
1740,0
1750,4095
1760,0
1770,4095
1780,0
1790,4095
1800,0
1810,4095
1820,0
1830,4095
1840,0
1850,4095
1860,0
1870,4095
1880,0
1890,4095
1900,0
1910,4095
1920,0
1930,4095
1940,0
1950,4095
1960,0
1970,4095
1980,0
1990,4095
2000,4095
2010,4095
2020,4095
2030,4095
2040,4095
2050,4095
2060,1753
2070,4095
2080,1121
2090,4095
2100,839
2110,4095
2120,707
2130,4095
2140,364
2150,4095
2160,0
2170,4095
2180,0
2190,4095
2200,0
2210,4095
2220,0
2230,4095
2240,0
2250,4095
2260,0
2270,4095
2280,0
2290,4095
2300,0
2310,4095
2320,1039
2330,4095
2340,0
2350,3712
2360,0
2370,3984
2380,0
2390,3965
2400,0
2410,3984
2420,0
2430,3983
2440,0
2450,4095
2460,0
2470,4095
2480,0
2490,4095
2500,0
2510,4095
2520,0
2530,4095
2540,0
2550,4095
2560,0
2570,4095
2580,0
2590,4041
2600,0
2610,3966
2620,0
2630,4026
2640,0
2650,4094
2660,0
2670,4095
2680,0
2690,4095
2700,0
2710,4095
2720,0
2730,4095
2740,0
2750,4095
2760,32
2770,4095
2780,73
2790,4095
2800,150
2810,4095
2820,267
2830,4095
2840,464
2850,4095
2860,464
2870,4095
2880,351
2890,4095
2900,353
2910,4095
2920,360
2930,4095
2940,346
2950,4095
2960,385
2970,4095
2980,419
2990,4095
3000,4095
3010,4095
3020,4095
3030,4095
3040,4095
3050,4095
3060,2255
3070,4095
3080,1957
3090,4095
3100,1530
3110,4095
3120,1210
3130,4095
3140,884
3150,4095
3160,829
3170,4082
3180,668
3190,4074
3200,677
3210,4016
3220,688
3230,3967
3240,624
3250,3895
3260,496
3270,3657
3280,354
3290,3415
3300,220
3310,3223
3320,162
3330,3058
3340,197
3350,3052
3360,198
3370,3042
3380,206
3390,3010
3400,215
3410,2986
3420,256
3430,2989
3440,272
3450,2947
3460,291
3470,2971
3480,322
3490,2969
3500,368
3510,2975
3520,384
3530,2978
3540,421
3550,3065
3560,598
3570,3177
3580,596
3590,3120
3600,411
3610,2625
3620,230
3630,2377
3640,179
3650,2198
3660,144
3670,2128
3680,149
3690,2125
3700,146
3710,2128
3720,197
3730,2103
3740,217
3750,2478
3760,1687
3770,2686
3780,4
3790,2038
3800,430
3810,2163
3820,397
3830,2240
3840,463
3850,2314
3860,547
3870,2406
3880,659
3890,2493
3900,781
3910,2630
3920,976
3930,2784
3940,1114
3950,2868
3960,1230
3970,2896
3980,1295
3990,4095
4000,4095
4010,4095
4020,4095
4030,4095
4040,4095
4050,4031
4060,2709
4070,3503
4080,2367
4090,3331
4100,2159
4110,3121
4120,1921
4130,2915
4140,1767
4150,2785
4160,1648
4170,2622
4180,1456
4190,2485
4200,1331
4210,2349
4220,1232
4230,2209
4240,1209
4250,2161
4260,1003
4270,2180
4280,1473
4290,2158
4300,1423
4310,2096
4320,1268
4330,1953
4340,1238
4350,1954
4360,1316
4370,1914
4380,1305
4390,1910
4400,1319
4410,1899
4420,1427
4430,1872
4440,1460
4450,1885
4460,1563
4470,2650
4480,3193
4490,1863
4500,1283
4510,1875
4520,1702
4530,1856
4540,1663
4550,1847
4560,1734
4570,1845
4580,1791
4590,1901
4600,1904
4610,1191
4620,1126
4630,1058
4640,1009
4650,953
4660,2205
4670,2047
4680,2278
4690,2020
4700,2285
4710,1881
4720,2157
4730,1689
4740,1931
4750,1535
4760,1829
4770,1446
4780,1827
4790,1413
4800,1927
4810,1440
4820,1997
4830,1371
4840,2043
4850,1446
4860,2101
4870,1535
4880,2126
4890,1424
4900,2182
4910,1381
4920,2224
4930,1371
4940,2251
4950,1403
4960,2315
4970,1471
4980,2530
4990,4095
5000,4095
5010,4095
5020,4095
5030,4095
5040,4095
5050,3063
5060,4095
5070,2598
5080,3806
5090,2297
5100,3499
5110,2017
5120,3256
5130,1785
5140,3056
5150,1569
5160,2896
5170,1799
5180,4095
5190,2386
5200,2369
5210,904
5220,2687
5230,921
5240,2523
5250,823
5260,2478
5270,778
5280,2485
5290,753
5300,2506
5310,761
5320,2496
5330,787
5340,2684
5350,898
5360,2800
5370,939
5380,2911
5390,926
5400,2915
5410,791
5420,2821
5430,603
5440,2595
5450,432
5460,2411
5470,358
5480,2422
5490,363
5500,2445
5510,368
5520,2595
5530,391
5540,2624
5550,367
5560,2725
5570,427
5580,2810
5590,400
5600,2833
5610,432
5620,2788
5630,384
5640,2789
5650,370
5660,2868
5670,407
5680,3145
5690,596
5700,3303
5710,563
5720,3222
5730,363
5740,3134
5750,359
5760,3175
5770,378
5780,3247
5790,380
5800,3197
5810,304
5820,3210
5830,334
5840,3315
5850,347
5860,3314
5870,490
5880,4095
5890,2325
5900,3001
5910,0
5920,3518
5930,302
5940,3394
5950,262
5960,3451
5970,263
5980,3519
5990,4095
6000,4095
6010,4095
6020,4095
6030,4095
6040,4095
6050,2519
6060,4095
6070,2021
6080,4095
6090,1699
6100,4095
6110,1253
6120,4095
6130,687
6140,4095
6150,258
6160,3799
6170,0
6180,3467
6190,0
6200,3311
6210,0
6220,3163
6230,0
6240,3160
6250,0
6260,3094
6270,0
6280,3120
6290,0
6300,3121
6310,0
6320,3165
6330,0
6340,3136
6350,0
6360,3088
6370,0
6380,3088
6390,0
6400,3316
6410,0
6420,3216
6430,0
6440,2968
6450,0
6460,2986
6470,0
6480,2977
6490,0
6500,3087
6510,0
6520,3129
6530,0
6540,3215
6550,0
6560,3250
6570,0
6580,3818
6590,800
6600,4095
6610,0
6620,3185
6630,0
6640,3774
6650,0
6660,3685
6670,0
6680,3835
6690,0
6700,4016
6710,0
6720,4095
6730,0
6740,4095
6750,0
6760,4095
6770,0
6780,4095
6790,0
6800,4095
6810,70
6820,4095
6830,0
6840,4095
6850,0
6860,4095
6870,0
6880,4095
6890,0
6900,4095
6910,0
6920,4095
6930,0
6940,4095
6950,0
6960,4095
6970,0
6980,4095
6990,3865
7000,3811
7010,3775
7020,3697
7030,3668
7040,3602
7050,2175
7060,4095
7070,1871
7080,4095
7090,1489
7100,4095
7110,910
7120,4095
7130,535
7140,4095
7150,369
7160,4095
7170,204
7180,4095
7190,116
7200,4095
7210,2
7220,4095
7230,0
7240,4095
7250,0
7260,4095
7270,921
7280,4095
7290,0
7300,4095
7310,0
7320,4095
7330,0
7340,4095
7350,0
7360,4095
7370,0
7380,4095
7390,0
7400,4095
7410,0
7420,4095
7430,0
7440,4095
7450,0
7460,4095
7470,0
7480,4095
7490,0
7500,4095
7510,0
7520,4095
7530,0
7540,3766
7550,0
7560,3635
7570,0
7580,3663
7590,0
7600,3619
7610,0
7620,3731
7630,0
7640,3791
7650,0
7660,3813
7670,0
7680,3908
7690,0
7700,3917
7710,0
7720,3920
7730,0
7740,4095
7750,0
7760,4095
7770,0
7780,4095
7790,0
7800,3884
7810,0
7820,4016
7830,0
7840,4038
7850,0
7860,4079
7870,0
7880,4048
7890,0
7900,4095
7910,0
7920,4095
7930,0
7940,4095
7950,1272
7960,4095
7970,0
7980,4016
7990,2519
8000,2480
8010,2431
8020,2416
8030,2354
8040,2318
8050,1862
8060,4095
8070,1418
8080,4095
8090,1131
8100,4095
8110,950
8120,4095
8130,745
8140,4095
8150,687
8160,4095
8170,541
8180,4095
8190,239
8200,4095
8210,91
8220,3948
8230,0
8240,3833
8250,0
8260,3676
8270,0
8280,3641
8290,0
8300,3653
8310,23
8320,3695
8330,0
8340,3628
8350,80
8360,3678
8370,78
8380,3671
8390,80
8400,3677
8410,113
8420,3545
8430,107
8440,3655
8450,221
8460,3785
8470,171
8480,3564
8490,101
8500,3408
8510,119
8520,3383
8530,140
8540,3353
8550,176
8560,3376
8570,190
8580,3396
8590,221
8600,3440
8610,253
8620,3423
8630,272
8640,3909
8650,1850
8660,3892
8670,146
8680,3363
8690,420
8700,3429
8710,413
8720,3426
8730,478
8740,3498
8750,511
8760,3502
8770,599
8780,3536
8790,697
8800,3579
8810,791
8820,3595
8830,924
8840,3626
8850,971
8860,3687
8870,1065
8880,3521
8890,886
8900,3381
8910,720
8920,3289
8930,694
8940,3210
8950,704
8960,3194
8970,747
8980,3204
8990,1968
9000,1946
9010,1929
9020,1907
9030,1899
9040,717
9050,679
9060,634
9070,592
9080,575
9090,559
9100,511
9110,486
9120,460
9130,1504
9140,3285
9150,1353
9160,3190
9170,1233
9180,3083
9190,1130
9200,3024
9210,1184
9220,3056
9230,1210
9240,2897
9250,1080
9260,2724
9270,938
9280,2622
9290,918
9300,2559
9310,898
9320,2487
9330,927
9340,2475
9350,939
9360,2443
9370,960
9380,2414
9390,953
9400,2399
9410,1436
9420,3884
9430,1798
9440,1793
9450,1059
9460,2317
9470,1088
9480,2289
9490,1152
9500,2277
9510,1200
9520,2319
9530,1287
9540,2366
9550,1383
9560,2425
9570,1511
9580,2480
9590,1616
9600,2523
9610,1744
9620,2544
9630,1806
9640,2540
9650,1824
9660,2365
9670,1654
9680,2179
9690,1427
9700,2042
9710,1409
9720,1993
9730,1459
9740,1985
9750,1522
9760,1965
9770,1584
9780,1963
9790,1614
9800,1942
9810,1726
9820,1916
9830,1690
9840,1866
9850,1712
9860,1825
9870,1721
9880,1809
9890,1776
9900,1747
9910,1795
9920,1714
9930,1802
9940,1751
9950,1817
9960,1674
9970,1828
9980,1648
9990,1616
10000,1630
10010,1648
10020,1665
10030,1690
10040,1701
10050,3739
10060,2816
10070,3276
10080,2481
10090,2922
10100,2190
10110,2730
10120,1977
10130,2589
10140,1803
10150,2467
10160,1633
10170,2343
10180,1471
10190,2239
10200,1375
10210,2912
10220,2974
10230,2208
10240,624
10250,2146
10260,1023
10270,1992
10280,958
10290,1993
10300,1003
10310,2000
10320,883
10330,2112
10340,873
10350,2128
10360,912
10370,2249
10380,944
10390,2355
10400,1022
10410,2477
10420,995
10430,2557
10440,944
10450,2447
10460,640
10470,2205
10480,402
10490,1955
10500,295
10510,1916
10520,291
10530,1941
10540,357
10550,1831
10560,384
10570,1925
10580,429
10590,2236
10600,432
10610,2318
10620,411
10630,2422
10640,432
10650,2481
10660,388
10670,2510
10680,390
10690,2533
10700,429
10710,2624
10720,426
10730,2649
10740,438
10750,2801
10760,507
10770,2768
10780,433
10790,2957
10800,605
10810,3087
10820,511
10830,2972
10840,372
10850,2915
10860,339
10870,2999
10880,362
10890,3020
10900,368
10910,3059
10920,368
10930,3158
10940,362
10950,3155
10960,354
10970,3189
10980,324
10990,2365
11000,2415
11010,2451
11020,2486
11030,2535
11040,2587
11050,4095
11060,2139
11070,4095
11080,1749
11090,4095
11100,1505
11110,4095
11120,1210
11130,4095
11140,1046
11150,4095
11160,935
11170,4095
11180,880
11190,4095
11200,782
11210,4095
11220,592
11230,4095
11240,318
11250,3742
11260,39
11270,3579
11280,0
11290,3546
11300,0
11310,3669
11320,0
11330,3705
11340,0
11350,3810
11360,38
11370,4000
11380,74
11390,4078
11400,25
11410,4073
11420,0
11430,4006
11440,0
11450,3934
11460,0
11470,3884
11480,0
11490,3854
11500,0
11510,3920
11520,0
11530,3974
11540,0
11550,3934
11560,0
11570,3952
11580,0
11590,4095
11600,0
11610,4095
11620,0
11630,4095
11640,0
11650,4032
11660,0
11670,4041
11680,0
11690,4095
11700,0
11710,4095
11720,0
11730,4095
11740,0
11750,4095
11760,0
11770,4095
11780,154
11790,4095
11800,977
11810,3609
11820,0
11830,4095
11840,0
11850,4095
11860,0
11870,4095
11880,0
11890,4095
11900,0
11910,4095
11920,0
11930,4095
11940,0
11950,4095
11960,0
11970,4095
11980,144
11990,3406
12000,3473
12010,3521
12020,3616
12030,3711
12040,3755
12050,4095
12060,1254
12070,4095
12080,699
12090,4095
12100,459
12110,4095
12120,210
12130,4095
12140,22
12150,4095
12160,0
12170,4095
12180,0
12190,4095
12200,0
12210,4095
12220,0
12230,4095
12240,0
12250,4095
12260,0
12270,4095
12280,0
12290,4095
12300,0
12310,4090
12320,0
12330,4019
12340,0
12350,3946
12360,0
12370,4095
12380,0
12390,4095
12400,0
12410,4002
12420,0
12430,3807
12440,0
12450,3843
12460,0
12470,3949
12480,0
12490,3882
12500,0
12510,4052
12520,0
12530,4017
12540,0
12550,3872
12560,0
12570,4095
12580,803
12590,3290
12600,0
12610,4095
12620,0
12630,4095
12640,0
12650,4095
12660,0
12670,4095
12680,0
12690,4095
12700,0
12710,4095
12720,0
12730,4095
12740,0
12750,4095
12760,38
12770,4095
12780,79
12790,4095
12800,70
12810,4095
12820,0
12830,4095
12840,0
12850,4081
12860,0
12870,4004
12880,0
12890,4043
12900,0
12910,4095
12920,0
12930,4095
12940,22
12950,4095
12960,81
12970,4095
12980,102
12990,4095
13000,4095
13010,4095
13020,4095
13030,4095
13040,4095
13050,4095
13060,2011
13070,4095
13080,1612
13090,4095
13100,1198
13110,3394
13120,3301
13130,3271
13140,3216
13150,3171
13160,801
13170,4095
13180,592
13190,4068
13200,496
13210,3999
13220,435
13230,3985
13240,426
13250,3935
13260,386
13270,3895
13280,411
13290,3838
13300,407
13310,3878
13320,1162
13330,4095
13340,912
13350,3174
13360,506
13370,3717
13380,470
13390,3630
13400,560
13410,3630
13420,496
13430,3681
13440,720
13450,3659
13460,761
13470,3726
13480,848
13490,3754
13500,1011
13510,3795
13520,1152
13530,3804
13540,1217
13550,3747
13560,1106
13570,3559
13580,917
13590,3391
13600,781
13610,3307
13620,767
13630,3223
13640,752
13650,3227
13660,792
13670,3232
13680,814
13690,3200
13700,861
13710,3169
13720,889
13730,3153
13740,960
13750,3144
13760,970
13770,3130
13780,1040
13790,3088
13800,1001
13810,3049
13820,1077
13830,3024
13840,1053
13850,2976
13860,1105
13870,2986
13880,1171
13890,3013
13900,1315
13910,2967
13920,1307
13930,2913
13940,1227
13950,2823
13960,1216
13970,2797
13980,1241
13990,4095
14000,4095
14010,4095
14020,4095
14030,4095
14040,4095
14050,4095
14060,3057
14070,3683
14080,2789
14090,4095
14100,4095
14110,3152
14120,1966
14130,2998
14140,2016
14150,2799
14160,1862
14170,2690
14180,1790
14190,2559
14200,1723
14210,2442
14220,1664
14230,2419
14240,1680
14250,2358
14260,1715
14270,2370
14280,1744
14290,2368
14300,1779
14310,2273
14320,1763
14330,2112
14340,1600
14350,1883
14360,1407
14370,1686
14380,1296
14390,1597
14400,1325
14410,1552
14420,1371
14430,1493
14440,1402
14450,1456
14460,1424
14470,1424
14480,1450
14490,1427
14500,1462
14510,1365
14520,1465
14530,1334
14540,1498
14550,1313
14560,1586
14570,1280
14580,1601
14590,1269
14600,1645
14610,1278
14620,1891
14630,1301
14640,1856
14650,1200
14660,1713
14670,1040
14680,1692
14690,991
14700,1697
14710,969
14720,1753
14730,931
14740,1801
14750,955
14760,1888
14770,1007
14780,1877
14790,938
14800,1959
14810,1243
14820,3654
14830,2304
14840,1767
14850,816
14860,2307
14870,907
14880,2211
14890,921
14900,2288
14910,934
14920,2353
14930,901
14940,2445
14950,954
14960,2538
14970,1006
14980,2691
14990,4095
15000,4095
15010,4095
15020,4095
15030,4095
15040,4095
15050,2896
15060,4095
15070,2240
15080,4021
15090,1664
15100,3439
15110,1296
15120,3211
15130,1058
15140,3021
15150,823
15160,2882
15170,660
15180,2795
15190,530
15200,2711
15210,419
15220,2645
15230,304
15240,2527
15250,199
15260,2513
15270,125
15280,2473
15290,81
15300,2438
15310,22
15320,2417
15330,0
15340,2443
15350,51
15360,2709
15370,21
15380,2650
15390,0
15400,2500
15410,0
15420,2535
15430,0
15440,2529
15450,0
15460,2557
15470,0
15480,2698
15490,0
15500,2803
15510,0
15520,2832
15530,0
15540,2927
15550,487
15560,4095
15570,321
15580,2609
15590,0
15600,3149
15610,0
15620,3088
15630,0
15640,3180
15650,0
15660,3317
15670,0
15680,3501
15690,0
15700,3654
15710,96
15720,3869
15730,195
15740,4095
15750,273
15760,4095
15770,303
15780,4095
15790,189
15800,4079
15810,0
15820,3754
15830,0
15840,3462
15850,0
15860,3533
15870,0
15880,3603
15890,0
15900,3659
15910,0
15920,3718
15930,0
15940,3811
15950,0
15960,3996
15970,0
15980,3952
15990,3878
16000,3831
16010,3782
16020,3713
16030,3713
16040,3649
16050,1709
16060,4095
16070,1247
16080,4095
16090,1072
16100,4095
16110,701
16120,4095
16130,320
16140,4095
16150,0
16160,4095
16170,0
16180,4095
16190,0
16200,4095
16210,0
16220,4095
16230,0
16240,3972
16250,0
16260,3883
16270,0
16280,4095
16290,506
16300,4095
16310,0
16320,3314
16330,0
16340,3787
16350,0
16360,3680
16370,0
16380,3770
16390,0
16400,3861
16410,0
16420,3971
16430,0
16440,4095
16450,0
16460,4095
16470,0
16480,4095
16490,0
16500,4095
16510,0
16520,4095
16530,0
16540,4095
16550,0
16560,3973
16570,0
16580,3867
16590,0
16600,3919
16610,0
16620,3953
16630,0
16640,4045
16650,0
16660,4078
16670,0
16680,4095
16690,0
16700,4095
16710,0
16720,4095
16730,0
16740,4095
16750,0
16760,4095
16770,0
16780,4095
16790,0
16800,4095
16810,0
16820,4095
16830,0
16840,4095
16850,0
16860,4095
16870,0
16880,4095
16890,0
16900,4095
16910,0
16920,4095
16930,0
16940,4095
16950,0
16960,4095
16970,0
16980,4095
16990,2260
17000,2209
17010,2183
17020,2151
17030,2106
17040,2081
17050,1783
17060,2813
17070,2763
17080,2704
17090,2642
17100,2596
17110,1265
17120,4095
17130,1088
17140,4095
17150,999
17160,4095
17170,947
17180,4095
17190,925
17200,4095
17210,999
17220,4095
17230,969
17240,4095
17250,885
17260,4095
17270,624
17280,4095
17290,445
17300,4095
17310,362
17320,4095
17330,428
17340,4095
17350,439
17360,4095
17370,432
17380,4095
17390,529
17400,4095
17410,644
17420,4095
17430,688
17440,4095
17450,683
17460,4095
17470,753
17480,4053
17490,797
17500,4095
17510,857
17520,4095
17530,887
17540,4095
17550,1112
17560,4095
17570,1163
17580,4095
17590,987
17600,4001
17610,949
17620,4021
17630,1040
17640,4015
17650,1109
17660,3956
17670,1234
17680,4016
17690,1296
17700,4007
17710,1397
17720,4080
17730,1386
17740,4052
17750,2322
17760,4095
17770,2006
17780,3435
17790,1466
17800,3950
17810,1535
17820,3860
17830,1584
17840,3888
17850,1695
17860,3906
17870,1809
17880,3920
17890,1830
17900,3933
17910,1995
17920,3941
17930,2112
17940,3999
17950,2192
17960,3985
17970,2204
17980,3919
17990,2511
18000,2549
18010,2522
18020,2515
18030,2525
18040,2513
18050,3536
18060,4095
18070,3179
18080,4095
18090,2789
18100,3937
18110,2530
18120,3677
18130,2320
18140,3443
18150,2129
18160,3271
18170,1956
18180,3125
18190,1792
18200,2945
18210,1713
18220,2849
18230,1613
18240,2741
18250,1584
18260,2657
18270,1534
18280,2559
18290,1505
18300,2544
18310,1663
18320,2523
18330,1631
18340,2399
18350,1421
18360,2224
18370,1335
18380,2183
18390,1328
18400,2065
18410,1347
18420,2013
18430,1385
18440,1954
18450,1451
18460,1938
18470,1451
18480,1870
18490,1469
18500,2039
18510,2761
18520,3057
18530,1253
18540,1585
18550,1659
18560,1683
18570,1579
18580,1664
18590,1602
18600,1663
18610,1653
18620,1618
18630,1744
18640,1664
18650,1839
18660,1669
18670,1918
18680,1728
18690,2058
18700,1743
18710,2139
18720,1754
18730,2187
18740,1659
18750,2111
18760,1474
18770,1926
18780,1250
18790,1775
18800,1178
18810,1733
18820,1089
18830,1826
18840,1087
18850,1911
18860,1073
18870,1971
18880,1061
18890,1989
18900,1039
18910,2039
18920,977
18930,2057
18940,954
18950,2077
18960,926
18970,2114
18980,899
18990,1677
19000,1667
19010,1719
19020,1749
19030,1780
19040,1808
19050,4095
19060,2411
19070,3815
19080,1983
19090,3294
19100,1529
19110,3011
19120,1268
19130,2930
19140,1061
19150,2738
19160,891
19170,2627
19180,729
19190,2559
19200,629
19210,2510
19220,487
19230,2359
19240,770
19250,4095
19260,1575
19270,1975
19280,179
19290,2405
19300,235
19310,2348
19320,202
19330,2339
19340,208
19350,2416
19360,193
19370,2495
19380,192
19390,2517
19400,218
19410,2671
19420,265
19430,2775
19440,311
19450,2883
19460,289
19470,2883
19480,245
19490,2783
19500,54
19510,2559
19520,0
19530,2420
19540,0
19550,2386
19560,0
19570,2463
19580,0
19590,2483
19600,0
19610,2559
19620,0
19630,2622
19640,0
19650,2678
19660,0
19670,2703
19680,0
19690,2786
19700,0
19710,2769
19720,0
19730,2800
19740,0
19750,2800
19760,0
19770,2928
19780,0
19790,3088
19800,0
19810,3007
19820,0
19830,2922
19840,0
19850,2961
19860,0
19870,3024
19880,0
19890,3053
19900,0
19910,3145
19920,0
19930,3228
19940,0
19950,3289
19960,0
19970,3664
19980,953
19990,2378
20000,2448
20010,2496
20020,2545
20030,2600
20040,2652
20050,4095
20060,1280
20070,4095
20080,942
20090,4095
20100,699
20110,4095
20120,483
20130,4095
20140,336
20150,4095
20160,242
20170,4095
20180,156
20190,4095
20200,3
20210,4095
20220,0
20230,4057
20240,0
20250,3559
20260,0
20270,3397
20280,0
20290,3343
20300,0
20310,3350
20320,0
20330,3471
20340,0
20350,3483
20360,0
20370,3517
20380,0
20390,3529
20400,0
20410,3502
20420,0
20430,3541
20440,0
20450,3486
20460,0
20470,3491
20480,0
20490,3445
20500,0
20510,3397
20520,0
20530,3408
20540,0
20550,3568
20560,0
20570,3651
20580,0
20590,3739
20600,0
20610,3730
20620,0
20630,3786
20640,0
20650,3890
20660,0
20670,3966
20680,0
20690,4049
20700,0
20710,4095
20720,0
20730,4095
20740,0
20750,4095
20760,1245
20770,3747
20780,0
20790,4095
20800,128
20810,4095
20820,178
20830,4095
20840,273
20850,4095
20860,352
20870,4095
20880,400
20890,4095
20900,479
20910,4095
20920,609
20930,4095
20940,681
20950,4095
20960,687
20970,4095
20980,2409
20990,2058
21000,2070
21010,2117
21020,2149
21030,2187
21040,2211
21050,2242
21060,2237
21070,2306
21080,2346
21090,4095
21100,1667
21110,4095
21120,1292
21130,4095
21140,983
21150,4095
21160,714
21170,4095
21180,404
21190,4095
21200,240
21210,4095
21220,64
21230,4095
21240,1
21250,4095
21260,0
21270,4095
21280,0
21290,4028
21300,0
21310,3865
21320,0
21330,4017
21340,0
21350,3953
21360,0
21370,3683
21380,0
21390,3504
21400,0
21410,3454
21420,0
21430,3426
21440,0
21450,3385
21460,0
21470,3456
21480,2
21490,3491
21500,31
21510,3405
21520,213
21530,4095
21540,1059
21550,2881
21560,0
21570,3519
21580,91
21590,3415
21600,139
21610,3529
21620,193
21630,3553
21640,247
21650,3600
21660,265
21670,3674
21680,370
21690,3685
21700,446
21710,3739
21720,497
21730,3787
21740,633
21750,3754
21760,605
21770,3618
21780,474
21790,3440
21800,347
21810,3312
21820,357
21830,3174
21840,397
21850,3170
21860,426
21870,3164
21880,450
21890,3195
21900,503
21910,3216
21920,547
21930,3213
21940,629
21950,3217
21960,640
21970,3171
21980,636
21990,3120
22000,656
22010,3106
22020,705
22030,2704
22040,2746
22050,2790
22060,2838
22070,2884
22080,2937
22090,4095
22100,2411
22110,3922
22120,2004
22130,3550
22140,1613
22150,3419
22160,1501
22170,3210
22180,1321
22190,3103
22200,1206
22210,2965
22220,1136
22230,2873
22240,1107
22250,2755
22260,1005
22270,2655
22280,1499
22290,4095
22300,1807
22310,2118
22320,1267
22330,2805
22340,1351
22350,2815
22360,1447
22370,2804
22380,1238
22390,2782
22400,1535
22410,2752
22420,1637
22430,2782
22440,1727
22450,2751
22460,1725
22470,2794
22480,1847
22490,2739
22500,1861
22510,2688
22520,1815
22530,2495
22540,1663
22550,2349
22560,1529
22570,2187
22580,1455
22590,2077
22600,1447
22610,2075
22620,1473
22630,2042
22640,1552
22650,2061
22660,1645
22670,2032
22680,1683
22690,2000
22700,1674
22710,1945
22720,1712
22730,1889
22740,1698
22750,1878
22760,1767
22770,1824
22780,1830
22790,1777
22800,1792
22810,1803
22820,2043
22830,1872
22840,2059
22850,1821
22860,1939
22870,1597
22880,1846
22890,1572
22900,1882
22910,1517
22920,1968
22930,1535
22940,1995
22950,1535
22960,2091
22970,1562
22980,2113
22990,1489
23000,2165
23010,1659
23020,3424
23030,4095
23040,4095
23050,4095
23060,4095
23070,4095
23080,4095
23090,2893
23100,3813
23110,2501
23120,3521
23130,2289
23140,3215
23150,2018
23160,3111
23170,1826
23180,3008
23190,1685
23200,2979
23210,1505
23220,2928
23230,1345
23240,2859
23250,1145
23260,2665
23270,838
23280,2339
23290,624
23300,2122
23310,447
23320,2006
23330,414
23340,1833
23350,434
23360,1896
23370,429
23380,2231
23390,458
23400,2305
23410,404
23420,2350
23430,420
23440,2407
23450,382
23460,2454
23470,384
23480,2453
23490,352
23500,2495
23510,350
23520,2540
23530,323
23540,2593
23550,342
23560,2721
23570,524
23580,2964
23590,531
23600,2981
23610,374
23620,2823
23630,274
23640,2890
23650,269
23660,2930
23670,241
23680,2987
23690,272
23700,3068
23710,334
23720,2992
23730,379
23740,3325
23750,379
23760,3513
23770,1395
23780,4095
23790,640
23800,3172
23810,493
23820,3643
23830,406
23840,3650
23850,421
23860,3789
23870,476
23880,3973
23890,511
23900,4059
23910,578
23920,4095
23930,660
23940,4095
23950,727
23960,4095
23970,798
23980,4095
23990,785
24000,4095
24010,731
24020,4095
24030,4095
24040,4095
24050,4095
24060,4095
24070,4095
24080,4095
24090,2166
24100,4095
24110,1743
24120,4095
24130,1392
24140,4095
24150,1093
24160,4095
24170,861
24180,4095
24190,688
24200,4095
24210,509
24220,4095
24230,440
24240,4095
24250,314
24260,4095
24270,257
24280,4095
24290,173
24300,4095
24310,133
24320,4095
24330,239
24340,4095
24350,176
24360,4095
24370,56
24380,4095
24390,0
24400,4095
24410,0
24420,4095
24430,0
24440,4095
24450,0
24460,4095
24470,0
24480,4095
24490,0
24500,4095
24510,0
24520,4095
24530,749
24540,4095
24550,650
24560,4095
24570,0
24580,4095
24590,0
24600,4095
24610,0
24620,4095
24630,0
24640,4095
24650,0
24660,4095
24670,42
24680,4095
24690,128
24700,4095
24710,256
24720,4095
24730,356
24740,4095
24750,353
24760,4095
24770,284
24780,4095
24790,0
24800,4095
24810,0
24820,4095
24830,0
24840,4095
24850,0
24860,4095
24870,0
24880,11
24890,44
24900,45
24910,74
24920,4095
24930,0
24940,4095
24950,0
24960,4095
24970,0
24980,4095
24990,0
25000,4095
25010,0
25020,4095
25030,4095
25040,4095
25050,4095
25060,4095
25070,4095
25080,4095
25090,1922
25100,4095
25110,1526
25120,4095
25130,1128
25140,4095
25150,699
25160,4095
25170,453
25180,4095
25190,210
25200,4095
25210,80
25220,4095
25230,0
25240,4095
25250,0
25260,4095
25270,0
25280,4095
25290,607
25300,4095
25310,0
25320,3713
25330,0
25340,4071
25350,0
25360,3908
25370,0
25380,3792
25390,0
25400,3745
25410,0
25420,3792
25430,0
25440,3817
25450,0
25460,3994
25470,0
25480,4095
25490,0
25500,4095
25510,0
25520,4023
25530,0
25540,3697
25550,0
25560,3341
25570,0
25580,3215
25590,0
25600,3175
25610,0
25620,3294
25630,0
25640,3343
25650,0
25660,3377
25670,0
25680,3373
25690,0
25700,3391
25710,0
25720,3421
25730,0
25740,3439
25750,0
25760,3438
25770,0
25780,3425
25790,0
25800,3428
25810,64
25820,3710
25830,94
25840,3719
25850,80
25860,3495
25870,48
25880,3346
25890,84
25900,3408
25910,123
25920,3408
25930,158
25940,3466
25950,190
25960,3506
25970,221
25980,3495
25990,236
26000,3499
26010,416
26020,4095
26030,4095
26040,4095
26050,4095
26060,4095
26070,4095
26080,4095
26090,1895
26100,4095
26110,1622
26120,4095
26130,1419
26140,3990
26150,1200
26160,3906
26170,1040
26180,3735
26190,939
26200,3649
26210,869
26220,3687
26230,797
26240,3451
26250,699
26260,3257
26270,553
26280,3053
26290,411
26300,2828
26310,363
26320,2672
26330,377
26340,2608
26350,388
26360,2627
26370,408
26380,2607
26390,395
26400,2544
26410,455
26420,2535
26430,450
26440,2514
26450,506
26460,2487
26470,533
26480,2439
26490,551
26500,2467
26510,592
26520,2441
26530,649
26540,2473
26550,667
26560,2478
26570,838
26580,2559
26590,792
26600,2545
26610,775
26620,2373
26630,720
26640,2352
26650,779
26660,2367
26670,832
26680,2375
26690,913
26700,2416
26710,956
26720,2375
26730,979
26740,2318
26750,1040
26760,2543
26770,2272
26780,3521
26790,977
26800,2074
26810,1296
26820,2272
26830,1177
26840,2277
26850,1255
26860,2291
26870,1353
26880,2366
26890,1475
26900,2380
26910,1535
26920,2402
26930,1638
26940,2433
26950,1699
26960,2487
26970,1819
26980,2496
26990,1885
27000,2357
27010,1776
27020,2203
27030,3120
27040,3071
27050,3014
27060,2965
27070,2922
27080,2874
27090,3038
27100,2995
27110,2778
27120,2788
27130,2635
27140,2559
27150,2457
27160,2358
27170,2293
27180,2162
27190,2128
27200,1984
27210,1998
27220,1874
27230,1925
27240,1759
27250,1907
27260,1645
27270,1842
27280,1563
27290,1803
27300,1500
27310,1765
27320,1472
27330,1984
27340,1489
27350,2042
27360,1345
27370,1837
27380,1110
27390,1671
27400,1087
27410,1693
27420,1095
27430,1496
27440,1166
27450,1602
27460,1164
27470,1920
27480,1178
27490,1989
27500,1162
27510,2000
27520,1426
27530,3681
27540,2445
27550,1840
27560,1023
27570,2310
27580,1126
27590,2227
27600,1120
27610,2290
27620,1145
27630,2384
27640,1183
27650,2445
27660,1172
27670,2544
27680,1230
27690,2652
27700,1270
27710,2783
27720,1329
27730,2849
27740,1335
27750,2864
27760,1260
27770,2816
27780,1050
27790,2642
27800,853
27810,2474
27820,714
27830,2401
27840,637
27850,2473
27860,682
27870,2539
27880,690
27890,2589
27900,676
27910,2646
27920,651
27930,2683
27940,622
27950,2687
27960,597
27970,2739
27980,571
27990,2772
28000,624
28010,2817
28020,609
28030,2416
28040,2379
28050,2347
28060,2318
28070,2286
28080,2256
28090,4095
28100,2075
28110,4095
28120,1616
28130,4080
28140,1344
28150,3894
28160,1137
28170,3729
28180,908
28190,3558
28200,803
28210,3454
28220,667
28230,3386
28240,526
28250,3253
28260,752
28270,4095
28280,1846
28290,2738
28300,111
28310,3249
28320,247
28330,3171
28340,203
28350,3207
28360,192
28370,3216
28380,233
28390,3374
28400,256
28410,3483
28420,384
28430,3732
28440,449
28450,3911
28460,575
28470,4095
28480,675
28490,4095
28500,624
28510,4092
28520,464
28530,3919
28540,240
28550,3745
28560,123
28570,3711
28580,155
28590,3794
28600,208
28610,4021
28620,306
28630,4095
28640,311
28650,4095
28660,334
28670,4095
28680,366
28690,4095
28700,368
28710,4095
28720,373
28730,4095
28740,411
28750,4095
28760,403
28770,4095
28780,1073
28790,1022
28800,999
28810,944
28820,598
28830,4095
28840,470
28850,4095
28860,362
28870,4095
28880,368
28890,4095
28900,354
28910,4095
28920,442
28930,4095
28940,435
28950,4095
28960,453
28970,4095
28980,485
28990,4095
29000,816
29010,4095
29020,2263
29030,2593
29040,2582
29050,2591
29060,2559
29070,2559
29080,2559
29090,4095
29100,2397
29110,4095
29120,2000
29130,4095
29140,1745
29150,4095
29160,1440
29170,4095
29180,1269
29190,4095
29200,1136
29210,4095
29220,953
29230,4095
29240,688
29250,4095
29260,329
29270,4095
29280,19
29290,4095
29300,0
29310,4095
29320,0
29330,4095
29340,0
29350,4095
29360,0
29370,4095
29380,0
29390,4095
29400,0
29410,4095
29420,0
29430,4094
29440,0
29450,4095
29460,0
29470,4095
29480,0
29490,4095
29500,0
29510,4095
29520,0
29530,4095
29540,0
29550,4095
29560,0
29570,4095
29580,0
29590,4095
29600,0
29610,4095
29620,0
29630,4095
29640,0
29650,4095
29660,0
29670,4095
29680,0
29690,4095
29700,0
29710,4095
29720,0
29730,4095
29740,0
29750,4095
29760,1449
29770,4015
29780,0
29790,4095
29800,0
29810,4095
29820,0
29830,4095
29840,0
29850,4095
29860,0
29870,4095
29880,0
29890,4095
29900,0
29910,4095
29920,0
29930,4095
29940,0
29950,4095
29960,48
29970,4095
29980,0
29990,4095
30000,0
30010,4095
30020,0
30030,1360
30040,1392
30050,1408
30060,1427
30070,1461
30080,1488
30090,4095
30100,1051
30110,4095
30120,791
30130,4095
30140,511
30150,4095
30160,298
30170,4095
30180,65
30190,4095
30200,0
30210,4095
30220,0
30230,4095
30240,0
30250,4095
30260,0
30270,4002
30280,0
30290,4095
30300,0
30310,4095
30320,0
30330,3803
30340,0
30350,3633
30360,0
30370,3606
30380,0
30390,3531
30400,0
30410,3517
30420,0
30430,3520
30440,0
30450,3434
30460,0
30470,3323
30480,87
30490,4095
30500,953
30510,2810
30520,0
30530,3296
30540,0
30550,3317
30560,0
30570,3329
30580,0
30590,3471
30600,45
30610,3682
30620,63
30630,3778
30640,144
30650,3827
30660,182
30670,3938
30680,250
30690,3937
30700,254
30710,3893
30720,266
30730,3773
30740,144
30750,3493
30760,65
30770,3300
30780,64
30790,3163
30800,106
30810,3248
30820,115
30830,3210
30840,128
30850,3255
30860,142
30870,3199
30880,191
30890,3226
30900,174
30910,3195
30920,224
30930,3170
30940,225
30950,3134
30960,231
30970,3019
30980,232
30990,3139
31000,389
31010,3266
31020,353
31030,1840
31040,1867
31050,1913
31060,1959
31070,2009
31080,2064
31090,4095
31100,1535
31110,3846
31120,1345
31130,3715
31140,1104
31150,3536
31160,858
31170,3393
31180,741
31190,3280
31200,1236
31210,4095
31220,1137
31230,2411
31240,606
31250,2867
31260,464
31270,2772
31280,467
31290,2718
31300,505
31310,2667
31320,554
31330,2691
31340,609
31350,2738
31360,642
31370,2791
31380,719
31390,2818
31400,810
31410,2847
31420,806
31430,2802
31440,806
31450,2618
31460,681
31470,2432
31480,616
31490,2299
31500,622
31510,2295
31520,706
31530,2322
31540,749
31550,2373
31560,777
31570,2401
31580,819
31590,2441
31600,883
31610,2416
31620,918
31630,2387
31640,955
31650,2372
31660,966
31670,2363
31680,1043
31690,2335
31700,1038
31710,2306
31720,1093
31730,2418
31740,1319
31750,2416
31760,1315
31770,2352
31780,1164
31790,2259
31800,1175
31810,2234
31820,1194
31830,2201
31840,1319
31850,2224
31860,1356
31870,2193
31880,1392
31890,2246
31900,1456
31910,2187
31920,1520
31930,2735
31940,3225
31950,2479
31960,1269
31970,2210
31980,1699
31990,2160
32000,1723
32010,2171
32020,1750
32030,3923
32040,4031
32050,4095
32060,4095
32070,4095
32080,4095
32090,3770
32100,3359
32110,3396
32120,3395
32130,3247
32140,3263
32150,3008
32160,2963
32170,2806
32180,2666
32190,2321
32200,2352
32210,2047
32220,2112
32230,1858
32240,1940
32250,1787
32260,1899
32270,1682
32280,1872
32290,1603
32300,1895
32310,1559
32320,1873
32330,1525
32340,1891
32350,1433
32360,1906
32370,1398
32380,1870
32390,1373
32400,1885
32410,1323
32420,1892
32430,1338
32440,1921
32450,1247
32460,2019
32470,1247
32480,2180
32490,1377
32500,2181
32510,1280
32520,2128
32530,1104
32540,1977
32550,1134
32560,2122
32570,1106
32580,2186
32590,1117
32600,2274
32610,1135
32620,2325
32630,1165
32640,2343
32650,1147
32660,2415
32670,1262
32680,3569
32690,2965
32700,2404
32710,737
32720,970
32730,901
32740,847
32750,813
32760,2663
32770,1074
32780,2691
32790,1134
32800,2783
32810,1204
32820,2913
32830,1264
32840,3005
32850,1399
32860,3173
32870,1413
32880,3232
32890,1423
32900,3299
32910,1407
32920,3216
32930,1179
32940,3044
32950,955
32960,2915
32970,804
32980,2849
32990,758
33000,2885
33010,788
33020,2950
33030,4095
33040,4095
33050,4095
33060,4095
33070,4095
33080,4095
33090,2401
33100,4095
33110,1945
33120,4095
33130,1622
33140,4001
33150,1346
33160,3738
33170,1089
33180,3571
33190,871
33200,3455
33210,893
33220,3485
33230,727
33240,3350
33250,464
33260,3040
33270,272
33280,2933
33290,213
33300,2931
33310,208
33320,2956
33330,179
33340,2997
33350,141
33360,2992
33370,128
33380,3043
33390,88
33400,3120
33410,773
33420,4095
33430,658
33440,2760
33450,11
33460,3144
33470,0
33480,3035
33490,0
33500,3055
33510,0
33520,3133
33530,0
33540,3184
33550,0
33560,3271
33570,0
33580,3415
33590,26
33600,3549
33610,128
33620,3609
33630,81
33640,3537
33650,0
33660,3325
33670,0
33680,3061
33690,0
33700,2943
33710,0
33720,2895
33730,0
33740,2928
33750,0
33760,3014
33770,0
33780,3085
33790,0
33800,3195
33810,0
33820,3197
33830,0
33840,3321
33850,0
33860,3292
33870,0
33880,3373
33890,0
33900,3421
33910,0
33920,3597
33930,0
33940,3886
33950,0
33960,3941
33970,0
33980,3665
33990,0
34000,3731
34010,0
34020,3787
34030,4095
34040,4095
34050,4095
34060,4095
34070,4095
34080,4095
34090,1581
34100,4095
34110,1129
34120,4095
34130,1779
34140,4095
34150,1431
34160,4095
34170,294
34180,4095
34190,186
34200,4095
34210,0
34220,4095
34230,0
34240,4095
34250,0
34260,4095
34270,0
34280,4095
34290,0
34300,4095
34310,0
34320,4095
34330,28
34340,4095
34350,153
34360,4095
34370,16
34380,4095
34390,0
34400,4095
34410,0
34420,4095
34430,0
34440,4095
34450,0
34460,4095
34470,0
34480,4095
34490,0
34500,4095
34510,0
34520,4095
34530,0
34540,4095
34550,0
34560,4095
34570,0
34580,4095
34590,0
34600,4095
34610,0
34620,4095
34630,0
34640,4095
34650,0
34660,4095
34670,0
34680,4095
34690,0
34700,4095
34710,0
34720,4095
34730,0
34740,4095
34750,0
34760,4095
34770,0
34780,4095
34790,0
34800,4095
34810,0
34820,4095
34830,0
34840,4095
34850,0
34860,4095
34870,1616
34880,4095
34890,0
34900,4095
34910,0
34920,4095
34930,0
34940,4095
34950,0
34960,4095
34970,0
34980,4095
34990,0
35000,4095
35010,0
35020,4095
35030,4095
35040,4095
35050,4095
35060,4095
35070,4095
35080,4095
35090,2177
35100,4095
35110,1486
35120,4095
35130,864
35140,4095
35150,422
35160,4095
35170,135
35180,4095
35190,0
35200,4095
35210,0
35220,4095
35230,0
35240,4095
35250,0
35260,4095
35270,0
35280,4095
35290,0
35300,4095
35310,0
35320,3932
35330,0
35340,4012
35350,0
35360,3860
35370,0
35380,3959
35390,0
35400,4015
35410,0
35420,3865
35430,0
35440,3600
35450,0
35460,3595
35470,0
35480,3635
35490,0
35500,3614
35510,0
35520,3639
35530,0
35540,3734
35550,0
35560,3789
35570,0
35580,4095
35590,1243
35600,4080
35610,0
35620,3627
35630,0
35640,3859
35650,0
35660,3895
35670,0
35680,3911
35690,18
35700,4016
35710,32
35720,4046
35730,109
35740,4063
35750,174
35760,4095
35770,208
35780,4095
35790,252
35800,4095
35810,272
35820,4095
35830,187
35840,3950
35850,138
35860,3793
35870,112
35880,3697
35890,132
35900,3712
35910,166
35920,3763
35930,207
35940,3778
35950,253
35960,3766
35970,340
35980,3787
35990,284
36000,3781
36010,307
36020,3785
36030,4095
36040,4095
36050,4095
36060,4095
36070,4095
36080,4095
36090,2284
36100,4095
36110,1872
36120,4095
36130,1434
36140,4095
36150,1107
36160,3984
36170,914
36180,3862
36190,776
36200,3719
36210,634
36220,3643
36230,592
36240,3546
36250,524
36260,3455
36270,477
36280,3446
36290,1317
36300,4095
36310,651
36320,2789
36330,511
36340,3200
36350,405
36360,3152
36370,453
36380,3153
36390,464
36400,3112
36410,511
36420,3114
36430,539
36440,3132
36450,651
36460,3163
36470,732
36480,3201
36490,809
36500,3209
36510,849
36520,3125
36530,743
36540,3012
36550,633
36560,2803
36570,534
36580,2706
36590,550
36600,2672
36610,581
36620,2672
36630,592
36640,2673
36650,672
36660,2713
36670,705
36680,2743
36690,773
36700,2755
36710,729
36720,2748
36730,834
36740,2735
36750,849
36760,767
36770,823
36780,849
36790,914
36800,2681
36810,1056
36820,2863
36830,1153
36840,2822
36850,1085
36860,2677
36870,1069
36880,2620
36890,1088
36900,2559
36910,1088
36920,2591
36930,1217
36940,2602
36950,1184
36960,2642
36970,1289
36980,2653
36990,1309
37000,2672
37010,1802
37020,4095
37030,3719
37040,3664
37050,3606
37060,3555
37070,3506
37080,3460
37090,3200
37100,3715
37110,2941
37120,3458
37130,2706
37140,3229
37150,2503
37160,3082
37170,2355
37180,2919
37190,2288
37200,2849
37210,2250
37220,2768
37230,2203
37240,2651
37250,2002
37260,2443
37270,1733
37280,2191
37290,1535
37300,1974
37310,1455
37320,1871
37330,1391
37340,1806
37350,1370
37360,1781
37370,1434
37380,1781
37390,1507
37400,1779
37410,1531
37420,1754
37430,1535
37440,1680
37450,1534
37460,1663
37470,1581
37480,1621
37490,1558
37500,1613
37510,1655
37520,1593
37530,1635
37540,1576
37550,1874
37560,1710
37570,1843
37580,1661
37590,1863
37600,1486
37610,1745
37620,1447
37630,1750
37640,1457
37650,1839
37660,1426
37670,1884
37680,1411
37690,1939
37700,1453
37710,1997
37720,1398
37730,2042
37740,1517
37750,2819
37760,3193
37770,2311
37780,894
37790,2253
37800,1424
37810,2226
37820,1392
37830,2246
37840,1422
37850,2344
37860,1429
37870,2401
37880,1456
37890,2477
37900,1507
37910,2615
37920,1501
37930,2675
37940,1613
37950,2761
37960,1614
37970,2818
37980,1591
37990,2593
38000,1422
38010,2650
38020,1216
38030,2467
38040,2396
38050,2352
38060,2320
38070,2275
38080,2235
38090,4095
38100,2263
38110,3913
38120,2134
38130,3555
38140,1810
38150,3376
38160,1579
38170,3134
38180,1333
38190,2986
38200,1137
38210,2884
38220,985
38230,2688
38240,816
38250,2615
38260,722
38270,2640
38280,785
38290,2627
38300,637
38310,2526
38320,438
38330,2295
38340,362
38350,2132
38360,387
38370,2384
38380,341
38390,2428
38400,327
38410,2467
38420,260
38430,2507
38440,329
38450,2544
38460,323
38470,2799
38480,1495
38490,4095
38500,112
38510,2331
38520,434
38530,2823
38540,283
38550,2742
38560,320
38570,2846
38580,349
38590,2930
38600,336
38610,3011
38620,442
38630,3121
38640,483
38650,3312
38660,538
38670,3376
38680,580
38690,3445
38700,551
38710,3440
38720,452
38730,3234
38740,175
38750,2943
38760,6
38770,2879
38780,0
38790,2902
38800,0
38810,2976
38820,0
38830,2985
38840,0
38850,3039
38860,0
38870,3055
38880,0
38890,3185
38900,0
38910,3186
38920,0
38930,3231
38940,0
38950,3261
38960,0
38970,3301
38980,0
38990,3398
39000,16
39010,3658
39020,144
39030,1638
39040,1613
39050,1587
39060,1562
39070,1535
39080,1515
39090,4095
39100,1435
39110,4095
39120,1167
39130,4095
39140,880
39150,4095
39160,637
39170,4095
39180,389
39190,4095
39200,340
39210,4095
39220,2107
39230,3386
39240,0
39250,4090
39260,0
39270,3807
39280,0
39290,3759
39300,0
39310,3716
39320,0
39330,3730
39340,0
39350,3847
39360,0
39370,3968
39380,0
39390,4095
39400,0
39410,4095
39420,0
39430,4095
39440,0
39450,4073
39460,0
39470,3739
39480,0
39490,3395
39500,0
39510,3312
39520,0
39530,3376
39540,0
39550,3472
39560,0
39570,3557
39580,0
39590,3552
39600,0
39610,3631
39620,0
39630,3760
39640,0
39650,3781
39660,0
39670,3897
39680,0
39690,3899
39700,0
39710,3954
39720,0
39730,4015
39740,0
39750,4095
39760,0
39770,4095
39780,0
39790,4095
39800,0
39810,4081
39820,0
39830,4095
39840,0
39850,4095
39860,0
39870,4095
39880,0
39890,4095
39900,0
39910,4095
39920,0
39930,4095
39940,224
39950,4095
39960,595
39970,3867
39980,0
39990,4095
40000,0
40010,4095
40020,0
40030,1891
40040,1906
40050,1917
40060,1929
40070,1935
40080,1947
40090,4095
40100,1771
40110,4095
40120,1488
40130,4095
40140,1286
40150,4095
40160,1047
40170,4095
40180,688
40190,4095
40200,222
40210,4095
40220,0
40230,4095
40240,0
40250,4095
40260,0
40270,4095
40280,0
40290,4095
40300,0
40310,4095
40320,0
40330,4095
40340,0
40350,4095
40360,0
40370,4095
40380,0
40390,4095
40400,0
40410,4095
40420,0
40430,4095
40440,0
40450,4095
40460,0
40470,4095
40480,0
40490,4095
40500,0
40510,4095
40520,0
40530,4026
40540,0
40550,3996
40560,0
40570,4048
40580,0
40590,4095
40600,0
40610,4095
40620,0
40630,4095
40640,0
40650,4095
40660,0
40670,4095
40680,1505
40690,4095
40700,0
40710,4095
40720,4095
40730,4095
40740,4095
40750,4095
40760,0
40770,4095
40780,31
40790,4095
40800,133
40810,4095
40820,226
40830,4095
40840,291
40850,4095
40860,441
40870,4095
40880,559
40890,4095
40900,593
40910,4095
40920,453
40930,4095
40940,270
40950,4095
40960,128
40970,4095
40980,141
40990,4095
41000,167
41010,4095
41020,275
41030,2453
41040,2483
41050,2513
41060,2546
41070,2577
41080,2616
41090,4095
41100,2235
41110,4095
41120,1806
41130,4095
41140,1445
41150,4095
41160,1137
41170,4095
41180,1135
41190,4095
41200,823
41210,4095
41220,734
41230,4095
41240,529
41250,4095
41260,393
41270,4095
41280,298
41290,4095
41300,319
41310,4095
41320,281
41330,4085
41340,311
41350,4062
41360,286
41370,4001
41380,759
41390,4095
41400,1202
41410,3194
41420,309
41430,3893
41440,300
41450,3824
41460,304
41470,3843
41480,356
41490,3854
41500,375
41510,3888
41520,458
41530,3873
41540,511
41550,3882
41560,547
41570,3914
41580,641
41590,3881
41600,634
41610,3840
41620,590
41630,3726
41640,458
41650,3507
41660,368
41670,3377
41680,324
41690,3328
41700,347
41710,3318
41720,373
41730,3291
41740,400
41750,3322
41760,447
41770,3285
41780,478
41790,3280
41800,464
41810,3274
41820,510
41830,3218
41840,541
41850,3233
41860,529
41870,3183
41880,656
41890,3344
41900,688
41910,3261
41920,631
41930,3118
41940,569
41950,3008
41960,576
41970,3010
41980,582
41990,2998
42000,621
42010,3010
42020,689
42030,3019
42040,3088
42050,3143
42060,3223
42070,3277
42080,3351
42090,4095
42100,3888
42110,3166
42120,1834
42130,3809
42140,1749
42150,3371
42160,1488
42170,3238
42180,1299
42190,3126
42200,1229
42210,2973
42220,1152
42230,2927
42240,838
42250,2887
42260,1134
42270,2851
42280,1178
42290,2859
42300,1149
42310,2765
42320,1073
42330,2587
42340,838
42350,2339
42360,738
42370,2134
42380,746
42390,2095
42400,696
42410,2102
42420,755
42430,2091
42440,789
42450,2106
42460,869
42470,2068
42480,919
42490,2079
42500,891
42510,2101
42520,1023
42530,2039
42540,1052
42550,2033
42560,1007
42570,2046
42580,1079
42590,2160
42600,1289
42610,2163
42620,1269
42630,2079
42640,1130
42650,1953
42660,1168
42670,1958
42680,1235
42690,1931
42700,1311
42710,1937
42720,1339
42730,1911
42740,1385
42750,1909
42760,1396
42770,1856
42780,1486
42790,2602
42800,3231
42810,2016
42820,1218
42830,1872
42840,1648
42850,1787
42860,1603
42870,1856
42880,1629
42890,1840
42900,1759
42910,1865
42920,1840
42930,1911
42940,1939
42950,1971
42960,2160
42970,2096
42980,2084
42990,2217
43000,2367
43010,2125
43020,2383
43030,3795
43040,3908
43050,3993
43060,4067
43070,4095
43080,4095
43090,2967
43100,3234
43110,2672
43120,2888
43130,2438
43140,2919
43150,2222
43160,2763
43170,2053
43180,2650
43190,1846
43200,2578
43210,1721
43220,2451
43230,1586
43240,2358
43250,1445
43260,2229
43270,1307
43280,2194
43290,1239
43300,2230
43310,1361
43320,2329
43330,1221
43340,2233
43350,1023
43360,2059
43370,938
43380,2128
43390,922
43400,2157
43410,929
43420,2193
43430,895
43440,2254
43450,880
43460,2284
43470,919
43480,2287
43490,885
43500,2975
43510,2674
43520,2608
43530,336
43540,2452
43550,912
43560,2519
43570,868
43580,2578
43590,880
43600,2635
43610,897
43620,2723
43630,920
43640,2906
43650,1072
43660,3053
43670,1211
43680,3215
43690,1339
43700,3349
43710,1456
43720,3431
43730,1381
43740,3445
43750,1198
43760,3274
43770,974
43780,3090
43790,792
43800,3054
43810,741
43820,3061
43830,767
43840,3119
43850,831
43860,3244
43870,821
43880,3249
43890,815
43900,3306
43910,749
43920,3319
43930,785
43940,3386
43950,762
43960,3392
43970,689
43980,3455
43990,878
44000,3619
44010,767
44020,3614
44030,4095
44040,4095
44050,4095
44060,4095
44070,4095
44080,4095
44090,2394
44100,4095
44110,1892
44120,4095
44130,1677
44140,4095
44150,1303
44160,4095
44170,1037
44180,4095
44190,2057
44200,4095
44210,478
44220,3542
44230,442
44240,3611
44250,220
44260,3505
44270,149
44280,3416
44290,86
44300,3457
44310,48
44320,3408
44330,11
44340,3481
44350,19
44360,3534
44370,75
44380,3712
44390,130
44400,3782
44410,76
44420,3649
44430,0
44440,3359
44450,0
44460,3136
44470,0
44480,2961
44490,0
44500,3003
44510,0
44520,3049
44530,0
44540,3085
44550,0
44560,3337
44570,3382
44580,3426
44590,3472
44600,3506
44610,0
44620,3246
44630,0
44640,3306
44650,0
44660,3662
44670,0
44680,3661
44690,0
44700,3515
44710,0
44720,3425
44730,0
44740,3583
44750,0
44760,3607
44770,0
44780,3747
44790,0
44800,3873
44810,0
44820,3987
44830,0
44840,4095
44850,212
44860,4095
44870,589
44880,3568
44890,0
44900,4095
44910,0
44920,4095
44930,0
44940,4095
44950,0
44960,4095
44970,0
44980,4095
44990,0
45000,4095
45010,49
45020,4095
45030,4095
45040,4095
45050,4095
45060,4095
45070,4095
45080,4095
45090,2274
45100,4095
45110,1521
45120,4095
45130,894
45140,4095
45150,448
45160,4095
45170,289
45180,4095
45190,112
45200,4095
45210,0
45220,4095
45230,0
45240,4095
45250,0
45260,4095
45270,0
45280,4095
45290,0
45300,4095
45310,0
45320,4095
45330,0
45340,4095
45350,0
45360,4087
45370,0
45380,4013
45390,0
45400,3987
45410,0
45420,4051
45430,0
45440,4016
45450,0
45460,4095
45470,0
45480,4065
45490,0
45500,4095
45510,1100
45520,4095
45530,0
45540,3819
45550,0
45560,4095
45570,0
45580,4095
45590,0
45600,4095
45610,0
45620,4095
45630,0
45640,4095
45650,0
45660,4095
45670,0
45680,4095
45690,0
45700,4095
45710,0
45720,4095
45730,0
45740,4095
45750,0
45760,4095
45770,0
45780,4095
45790,0
45800,3994
45810,0
45820,4015
45830,0
45840,4082
45850,0
45860,4095
45870,0
45880,4095
45890,0
45900,4095
45910,0
45920,4095
45930,0
45940,4095
45950,0
45960,4095
45970,0
45980,4095
45990,0
46000,4095
46010,0
46020,4095
46030,4095
46040,4095
46050,4095
46060,4095
46070,4095
46080,4095
46090,1493
46100,4095
46110,1131
46120,4095
46130,858
46140,4095
46150,537
46160,4095
46170,1694
46180,4095
46190,236
46200,4095
46210,50
46220,4095
46230,0
46240,4095
46250,0
46260,4095
46270,4
46280,4095
46290,0
46300,4095
46310,13
46320,4095
46330,39
46340,4095
46350,94
46360,4095
46370,111
46380,4095
46390,111
46400,4035
46410,33
46420,3833
46430,0
46440,3479
46450,0
46460,3314
46470,0
46480,3303
46490,0
46500,3322
46510,0
46520,3355
46530,0
46540,3367
46550,26
46560,3406
46570,21
46580,3374
46590,39
46600,3346
46610,64
46620,3312
46630,93
46640,3325
46650,96
46660,3455
46670,208
46680,3506
46690,221
46700,3413
46710,158
46720,3262
46730,178
46740,3263
46750,208
46760,3301
46770,231
46780,3313
46790,265
46800,3330
46810,303
46820,3348
46830,336
46840,3359
46850,343
46860,3707
46870,1776
46880,3862
46890,208
46900,3198
46910,492
46920,3311
46930,439
46940,3354
46950,507
46960,3314
46970,605
46980,3269
46990,711
47000,3312
47010,750
47020,3338
47030,4095
47040,4095
47050,4095
47060,4095
47070,4095
47080,4095
47090,2794
47100,4095
47110,2311
47120,3984
47130,1717
47140,3637
47150,1361
47160,3381
47170,1135
47180,3249
47190,956
47200,3136
47210,891
47220,3034
47230,825
47240,2917
47250,799
47260,2899
47270,784
47280,2774
47290,801
47300,2731
47310,764
47320,2669
47330,777
47340,2635
47350,774
47360,2759
47370,930
47380,2697
47390,925
47400,2586
47410,774
47420,2418
47430,815
47440,2416
47450,823
47460,2421
47470,905
47480,2405
47490,932
47500,2385
47510,994
47520,2366
47530,1013
47540,2371
47550,1018
47560,2542
47570,2277
47580,3617
47590,937
47600,1958
47610,1229
47620,2305
47630,1135
47640,2274
47650,1239
47660,2271
47670,1313
47680,2302
47690,1367
47700,2330
47710,1492
47720,2351
47730,1639
47740,2389
47750,1739
47760,2437
47770,1803
47780,2425
47790,1814
47800,2366
47810,1682
47820,2254
47830,1595
47840,2014
47850,1486
47860,1904
47870,1478
47880,1911
47890,1509
47900,1875
47910,1520
47920,1919
47930,1603
47940,1905
47950,1717
47960,1872
47970,1744
47980,1820
47990,1728
48000,1805
48010,1766
48020,1785
48030,3186
48040,3139
48050,3089
48060,3046
48070,2998
48080,2954
48090,3626
48100,2992
48110,3211
48120,2604
48130,2907
48140,2346
48150,2704
48160,2126
48170,2521
48180,1948
48190,2413
48200,1757
48210,2368
48220,1662
48230,2203
48240,1475
48250,2099
48260,1359
48270,2299
48280,2559
48290,3312
48300,652
48310,1667
48320,1132
48330,1996
48340,1051
48350,2015
48360,1037
48370,2000
48380,1023
48390,2077
48400,1023
48410,2160
48420,1085
48430,2247
48440,1120
48450,2411
48460,1216
48470,2581
48480,1286
48490,2618
48500,1296
48510,2651
48520,1102
48530,2451
48540,0
48550,0
48560,0
48570,0
48580,0
48590,2197
48600,598
48610,2251
48620,642
48630,2369
48640,640
48650,2422
48660,673
48670,2496
48680,702
48690,2558
48700,672
48710,2587
48720,688
48730,2665
48740,626
48750,2671
48760,593
48770,2719
48780,574
48790,2745
48800,561
48810,2757
48820,699
48830,3059
48840,705
48850,3013
48860,611
48870,2923
48880,500
48890,2881
48900,484
48910,2897
48920,464
48930,2983
48940,447
48950,2994
48960,463
48970,3115
48980,503
48990,3173
49000,485
49010,3268
49020,1055
49030,2268
49040,2231
49050,2222
49060,2178
49070,2155
49080,2135
49090,4095
49100,2094
49110,4095
49120,1840
49130,4095
49140,1518
49150,4095
49160,1296
49170,4095
49180,1021
49190,4095
49200,1013
49210,4095
49220,928
49230,4095
49240,875
49250,4095
49260,627
49270,3917
49280,330
49290,3594
49300,11
49310,3278
49320,0
49330,3123
49340,0
49350,3186
49360,0
49370,3162
49380,0
49390,3279
49400,0
49410,3298
49420,0
49430,3333
49440,0
49450,3346
49460,0
49470,3376
49480,0
49490,3376
49500,0
49510,3435
49520,0
49530,3478
49540,0
49550,3574
49560,0
49570,3578
49580,0
49590,3867
49600,0
49610,3873
49620,0
49630,3821
49640,0
49650,3666
49660,0
49670,3741
49680,0
49690,3873
49700,0
49710,3947
49720,0
49730,4048
49740,0
49750,4095
49760,0
49770,4095
49780,0
49790,4095
49800,1616
49810,3524
49820,0
49830,4095
49840,0
49850,4095
49860,0
49870,4095
49880,0
49890,4095
49900,0
49910,4095
49920,0
49930,4095
49940,0
49950,4095
49960,0
49970,4095
49980,42
49990,4095
50000,135
50010,4095
50020,133
50030,1567
50040,1559
50050,1553
50060,1558
50070,1555
50080,1567
50090,4095
50100,1246
50110,4095
50120,922
50130,4095
50140,693
50150,4095
50160,399
50170,4095
50180,167
50190,4095
50200,0
50210,4095
50220,0
50230,4095
50240,0
50250,4095
50260,0
50270,4095
50280,0
50290,4095
50300,0
50310,4095
50320,0
50330,4095
50340,0
50350,4095
50360,0
50370,4077
50380,0
50390,3853
50400,0
50410,3905
50420,0
50430,3927
50440,0
50450,3810
50460,0
50470,3782
50480,0
50490,3713
50500,0
50510,3686
50520,0
50530,4095
50540,74
50550,3322
50560,0
50570,3831
50580,0
50590,3943
50600,0
50610,4095
50620,0
50630,4095
50640,0
50650,4095
50660,0
50670,4095
50680,0
50690,4095
50700,0
50710,4095
50720,0
50730,4095
50740,0
50750,4095
50760,0
50770,4095
50780,0
50790,4095
50800,0
50810,4095
50820,0
50830,4095
50840,0
50850,4095
50860,0
50870,4095
50880,0
50890,4095
50900,0
50910,4095
50920,0
50930,4095
50940,0
50950,4095
50960,0
50970,4095
50980,0
50990,4095
51000,0
51010,4095
51020,0
51030,1744
51040,1776
51050,1795
51060,1815
51070,1843
51080,1872
51090,4095
51100,1275
51110,4095
51120,961
51130,4095
51140,735
51150,4095
51160,448
51170,4095
51180,334
51190,4095
51200,211
51210,4095
51220,129
51230,4095
51240,1674
51250,4095
51260,0
51270,3979
51280,40
51290,4034
51300,8
51310,3992
51320,15
51330,3979
51340,25
51350,3939
51360,48
51370,3935
51380,43
51390,3937
51400,102
51410,3985
51420,198
51430,4022
51440,199
51450,4040
51460,213
51470,3966
51480,135
51490,3802
51500,94
51510,3560
51520,55
51530,3406
51540,71
51550,3461
51560,91
51570,3478
51580,110
51590,3569
51600,158
51610,3617
51620,202
51630,3630
51640,243
51650,3596
51660,261
51670,3634
51680,299
51690,3600
51700,307
51710,3610
51720,333
51730,3583
51740,364
51750,3615
51760,511
51770,3696
51780,560
51790,3601
51800,485
51810,3478
51820,487
51830,3462
51840,495
51850,3442
51860,528
51870,3536
51880,547
51890,3419
51900,595
51910,3482
51920,711
51930,3433
51940,767
51950,3991
51960,2459
51970,3653
51980,548
51990,3415
52000,785
52010,3377
52020,871
52030,2867
52040,2912
52050,2967
52060,3023
52070,3063
52080,3089
52090,4095
52100,2643
52110,4095
52120,2415
52130,4095
52140,2321
52150,4068
52160,2155
52170,3909
52180,1935
52190,3659
52200,1630
52210,3376
52220,1300
52230,3122
52240,1039
52250,2965
52260,976
52270,2897
52280,951
52290,2812
52300,944
52310,2758
52320,946
52330,2766
52340,960
52350,2687
52360,966
52370,2676
52380,1007
52390,2650
52400,983
52410,2624
52420,1035
52430,2519
52440,1063
52450,2554
52460,1016
52470,2555
52480,1213
52490,2636
52500,1215
52510,2559
52520,1187
52530,2446
52540,1136
52550,2385
52560,1182
52570,2057
52580,1958
52590,1890
52600,1794
52610,1719
52620,1300
52630,2349
52640,1334
52650,2321
52660,1329
52670,2528
52680,2738
52690,3341
52700,1136
52710,2095
52720,1570
52730,2220
52740,1535
52750,2258
52760,1611
52770,2273
52780,1701
52790,2335
52800,1799
52810,2381
52820,1897
52830,2416
52840,2023
52850,2502
52860,2161
52870,2510
52880,2215
52890,2535
52900,2256
52910,2413
52920,2093
52930,2179
52940,1956
52950,1941
52960,1866
52970,1760
52980,1799
52990,1655
53000,1735
53010,1648
53020,1683
53030,3444
53040,3557
53050,3614
53060,3695
53070,3763
53080,3827
53090,3089
53100,3265
53110,2762
53120,2999
53130,2465
53140,2846
53150,2176
53160,2653
53170,1955
53180,2499
53190,1775
53200,2365
53210,1872
53220,2310
53230,1724
53240,2197
53250,1454
53260,1986
53270,1309
53280,1969
53290,1255
53300,1968
53310,1168
53320,1920
53330,1143
53340,1939
53350,1105
53360,1968
53370,1077
53380,1980
53390,1089
53400,2738
53410,2753
53420,2211
53430,528
53440,2111
53450,1022
53460,2114
53470,951
53480,2192
53490,975
53500,2235
53510,977
53520,2311
53530,961
53540,2363
53550,1037
53560,2496
53570,1093
53580,2639
53590,1195
53600,2762
53610,1206
53620,2785
53630,1159
53640,2737
53650,966
53660,2558
53670,707
53680,2352
53690,550
53700,2240
53710,511
53720,2288
53730,464
53740,2318
53750,496
53760,2396
53770,466
53780,2421
53790,528
53800,2502
53810,485
53820,2508
53830,464
53840,2590
53850,455
53860,2609
53870,464
53880,2657
53890,485
53900,2777
53910,619
53920,2993
53930,638
53940,3005
53950,501
53960,2861
53970,402
53980,2819
53990,440
54000,2905
54010,446
54020,2951
54030,4095
54040,4095
54050,4095
54060,4095
54070,4095
54080,4095
54090,2289
54100,4095
54110,2999
54120,4095
54130,1998
54140,4030
54150,1291
54160,4095
54170,1113
54180,4070
54190,930
54200,3981
54210,848
54220,3840
54230,717
54240,3873
54250,672
54260,3823
54270,656
54280,4051
54290,695
54300,4019
54310,719
54320,3998
54330,660
54340,3895
54350,454
54360,3607
54370,174
54380,3335
54390,0
54400,3170
54410,0
54420,3124
54430,0
54440,3103
54450,0
54460,3182
54470,0
54480,3234
54490,0
54500,3267
54510,0
54520,3303
54530,0
54540,3307
54550,0
54560,3294
54570,0
54580,3303
54590,0
54600,3600
54610,0
54620,3525
54630,0
54640,3333
54650,0
54660,3266
54670,0
54680,3361
54690,0
54700,3381
54710,0
54720,3466
54730,0
54740,3521
54750,0
54760,3547
54770,0
54780,3583
54790,0
54800,4095
54810,1348
54820,3211
54830,0
54840,3890
54850,0
54860,3765
54870,0
54880,3885
54890,0
54900,4060
54910,0
54920,4095
54930,0
54940,4095
54950,0
54960,4095
54970,0
54980,4095
54990,0
55000,4095
55010,67
55020,4095
55030,4095
55040,4095
55050,4095
55060,4095
55070,4095
55080,4095
55090,1281
55100,4095
55110,801
55120,4095
55130,560
55140,4095
55150,321
55160,4095
55170,0
55180,4095
55190,0
55200,4095
55210,0
55220,4095
55230,0
55240,4095
55250,0
55260,4095
55270,0
55280,4095
55290,0
55300,4095
55310,0
55320,4095
55330,0
55340,4095
55350,0
55360,3739
55370,0
55380,3706
55390,0
55400,3712
55410,0
55420,3730
55430,0
55440,3824
55450,0
55460,3947
55470,0
55480,3942
55490,0
55500,4095
55510,528
55520,4095
55530,0
55540,3685
55550,0
55560,4095
55570,0
55580,4095
55590,0
55600,4095
55610,0
55620,4095
55630,0
55640,4095
55650,0
55660,4095
55670,0
55680,4095
55690,0
55700,4095
55710,0
55720,4095
55730,0
55740,4095
55750,0
55760,4095
55770,0
55780,4095
55790,0
55800,4095
55810,0
55820,4095
55830,0
55840,4095
55850,0
55860,4095
55870,0
55880,4095
55890,0
55900,4095
55910,0
55920,4095
55930,0
55940,4095
55950,0
55960,4095
55970,0
55980,4095
55990,0
56000,4095
56010,0
56020,4095
56030,4095
56040,4095
56050,4095
56060,4095
56070,4095
56080,4095
56090,1620
56100,4095
56110,1040
56120,4095
56130,750
56140,4095
56150,549
56160,4095
56170,307
56180,4095
56190,193
56200,4095
56210,0
56220,4095
56230,0
56240,4095
56250,239
56260,4095
56270,1305
56280,3517
56290,0
56300,4095
56310,0
56320,4095
56330,0
56340,4095
56350,0
56360,4095
56370,0
56380,4095
56390,13
56400,4095
56410,46
56420,4095
56430,71
56440,4095
56450,182
56460,4095
56470,240
56480,4095
56490,164
56500,4095
56510,39
56520,4095
56530,0
56540,3888
56550,0
56560,1591
56570,1468
56580,1413
56590,1351
56600,1283
56610,0
56620,3822
56630,0
56640,3747
56650,0
56660,3743
56670,2
56680,3749
56690,0
56700,3696
56710,28
56720,3845
56730,61
56740,3853
56750,92
56760,3865
56770,116
56780,3929
56790,164
56800,3905
56810,181
56820,3920
56830,211
56840,3860
56850,215
56860,3954
56870,351
56880,4027
56890,366
56900,3943
56910,311
56920,3792
56930,264
56940,3782
56950,254
56960,3757
56970,308
56980,3765
56990,320
57000,3778
57010,398
57020,3758
57030,4095
57040,4095
57050,4095
57060,4095
57070,4095
57080,4095
57090,3265
57100,4059
57110,1637
57120,4095
57130,1517
57140,4095
57150,1269
57160,4063
57170,1081
57180,3916
57190,998
57200,3859
57210,922
57220,3757
57230,887
57240,3760
57250,903
57260,3745
57270,926
57280,3709
57290,926
57300,3611
57310,737
57320,3411
57330,592
57340,3191
57350,462
57360,3015
57370,443
57380,2948
57390,429
57400,2917
57410,471
57420,2923
57430,496
57440,2896
57450,558
57460,2947
57470,581
57480,2934
57490,613
57500,2923
57510,623
57520,2892
57530,646
57540,2860
57550,642
57560,2847
57570,657
57580,2847
57590,678
57600,2833
57610,717
57620,2856
57630,769
57640,2873
57650,814
57660,2864
57670,884
57680,2895
57690,944
57700,3024
57710,1094
57720,3003
57730,1072
57740,2922
57750,1035
57760,2878
57770,1093
57780,2854
57790,1129
57800,2853
57810,1183
57820,2859
57830,1207
57840,2877
57850,1263
57860,2844
57870,1285
57880,2832
57890,1355
57900,3249
57910,2939
57920,3312
57930,1133
57940,2733
57950,1323
57960,2832
57970,1472
57980,2816
57990,1510
58000,2786
58010,1552
58020,2810
58030,4074
58040,4016
58050,3957
58060,3888
58070,3844
58080,3803
58090,3511
58100,4045
58110,3236
58120,3772
58130,3003
58140,3392
58150,2591
58160,3045
58170,2153
58180,2716
58190,1840
58200,2463
58210,1662
58220,2362
58230,1562
58240,2271
58250,1511
58260,2181
58270,1526
58280,2163
58290,1552
58300,2095
58310,1515
58320,2037
58330,1508
58340,2012
58350,1488
58360,1999
58370,1568
58380,1968
58390,1559
58400,1899
58410,1584
58420,1886
58430,1601
58440,1839
58450,1586
58460,1860
58470,1653
58480,1808
58490,1698
58500,1808
58510,1727
58520,1807
58530,1776
58540,1767
58550,1790
58560,1777
58570,1823
58580,1891
58590,1979
58600,1856
58610,1987
58620,1745
58630,1849
58640,1601
58650,1798
58660,1535
58670,1834
58680,1522
58690,1829
58700,1515
58710,1829
58720,1461
58730,1888
58740,1459
58750,1915
58760,1422
58770,1978
58780,1953
58790,3777
58800,2091
58810,1687
58820,1367
58830,2111
58840,1333
58850,2000
58860,1354
58870,2110
58880,1331
58890,2130
58900,1409
58910,2251
58920,1397
58930,2357
58940,1472
58950,2480
58960,1580
58970,2618
58980,1666
58990,2721
59000,1691
59010,2737
59020,1576
59030,2455
59040,2416
59050,2365
59060,2320
59070,2275
59080,2227
59090,3855
59100,2254
59110,3489
59120,2069
59130,3314
59140,1797
59150,3066
59160,1627
59170,2960
59180,1404
59190,2848
59200,1256
59210,2752
59220,1103
59230,2613
59240,938
59250,2527
59260,817
59270,2384
59280,719
59290,2363
59300,678
59310,2350
59320,639
59330,2375
59340,624
59350,2322
59360,619
59370,2416
59380,526
59390,2331
59400,495
59410,2356
59420,469
59430,2515
59440,560
59450,2530
59460,502
59470,2450
59480,335
59490,2400
59500,320
59510,2434
59520,292
59530,2434
59540,303
59550,2505
59560,338
59570,2559
59580,375
59590,2653
59600,372
59610,2731
59620,300
59630,3266
59640,2020
59650,3447
59660,0
59670,2503
59680,353
59690,2754
59700,296
59710,2559
59720,320
59730,2682
59740,371
59750,2999
59760,396
59770,3111
59780,450
59790,3362
59800,576
59810,3531
59820,742
59830,3713
59840,816
59850,3837
59860,880
59870,3787
59880,716
59890,3594
59900,464
59910,3373
59920,325
59930,3296
59940,278
59950,3392
59960,285
59970,3349
59980,251
59990,3378
