timestamp,value
0,2992
10,3024
20,3054
30,3061
40,3086
50,3503
60,2025
70,3184
80,2096
90,3280
100,3066
110,4087
120,1227
130,2653
140,1840
150,2686
160,1682
170,2587
180,1610
190,2541
200,1575
210,2500
220,1552
230,2512
240,1535
250,2528
260,1601
270,2557
280,1719
290,2631
300,1744
310,2690
320,1684
330,2587
340,1503
350,2418
360,1397
370,2242
380,1257
390,2169
400,1216
410,2146
420,1243
430,2065
440,1317
450,2190
460,1296
470,2198
480,1293
490,2179
500,1300
510,2192
520,1307
530,2146
540,1351
550,2128
560,1329
570,2192
580,1458
590,2240
600,1593
610,2193
620,1375
630,1973
640,1247
650,2031
660,1250
670,2007
680,1342
690,2068
700,1290
710,2002
720,1327
730,2011
740,1328
750,2010
760,1418
770,2241
780,2489
790,3063
800,821
810,1941
820,1627
830,2059
840,1511
850,2074
860,1494
870,2034
880,1591
890,2113
900,1612
910,2163
920,1699
930,2204
940,1690
950,2296
960,1949
970,2249
980,2016
990,3475
1000,3463
1010,3408
1020,3474
1030,3473
1040,3446
1050,2872
1060,2282
1070,2506
1080,2003
1090,2459
1100,2019
1110,2199
1120,1926
1130,2139
1140,1886
1150,2019
1160,1718
1170,1895
1180,1734
1190,1694
1200,1660
1210,1688
1220,1631
1230,1623
1240,1519
1250,1456
1260,1555
1270,1555
1280,1708
1290,1585
1300,1606
1310,1507
1320,1488
1330,1351
1340,1347
1350,1395
1360,1488
1370,1350
1380,1520
1390,1377
1400,1583
1410,1375
1420,1644
1430,1398
1440,1635
1450,1422
1460,1726
1470,2064
1480,3099
1490,1150
1500,1375
1510,1553
1520,1741
1530,1396
1540,1827
1550,1472
1560,1904
1570,1433
1580,1994
1590,1579
1600,2007
1610,1552
1620,2046
1630,1665
1640,2139
1650,1712
1660,2265
1670,1805
1680,2291
1690,1872
1700,2256
1710,1707
1720,2128
1730,1616
1740,1955
1750,1488
1760,1906
1770,1344
1780,1968
1790,1397
1800,1920
1810,1453
1820,1990
1830,1471
1840,2039
1850,1498
1860,2005
1870,1526
1880,2001
1890,1559
1900,2095
1910,1470
1920,2075
1930,1535
1940,2120
1950,1493
1960,2157
1970,1681
1980,2246
1990,2701
2000,2723
2010,2704
2020,2704
2030,2672
2040,2662
2050,2109
2060,2805
2070,2136
2080,2730
2090,2054
2100,2738
2110,1982
2120,2613
2130,1904
2140,2547
2150,1858
2160,2512
2170,2416
2180,4095
2190,1397
2200,2032
2210,1725
2220,2368
2230,1584
2240,2290
2250,1638
2260,2256
2270,1600
2280,2346
2290,1606
2300,2347
2310,1592
2320,2407
2330,1610
2340,2482
2350,1744
2360,2591
2370,1808
2380,2521
2390,1763
2400,2514
2410,1598
2420,2250
2430,1386
2440,2094
2450,1223
2460,1987
2470,1178
2480,1998
2490,1200
2500,2057
2510,1275
2520,2148
2530,1268
2540,2214
2550,1329
2560,2278
2570,1393
2580,2259
2590,1407
2600,2273
2610,1372
2620,2275
2630,1438
2640,2365
2650,1509
2660,2355
2670,1526
2680,2381
2690,1524
2700,2448
2710,1743
2720,2444
2730,1744
2740,2464
2750,1618
2760,2343
2770,1618
2780,2327
2790,1600
2800,2443
2810,1581
2820,2327
2830,1650
2840,2495
2850,1639
2860,2474
2870,1757
2880,2524
2890,1770
2900,2745
2910,3343
2920,3169
2930,1232
2940,2399
2950,2063
2960,2643
2970,2064
2980,2640
2990,2559
3000,2631
3010,2559
3020,2579
3030,2559
3040,2549
3050,2673
3060,3356
3070,2605
3080,3371
3090,2885
3100,3518
3110,2719
3120,3200
3130,2747
3140,3203
3150,2489
3160,2998
3170,2109
3180,2859
3190,2238
3200,2683
3210,2176
3220,2545
3230,1968
3240,2827
3250,2140
3260,2553
3270,2311
3280,2637
3290,2319
3300,2585
3310,2192
3320,2559
3330,2259
3340,2475
3350,2243
3360,2603
3370,2240
3380,2479
3390,2084
3400,2323
3410,2130
3420,2464
3430,2179
3440,2474
3450,2058
3460,2448
3470,2082
3480,2070
3490,2005
3500,2111
3510,1936
3520,1999
3530,1904
3540,1952
3550,1846
3560,1958
3570,1808
3580,2075
3590,1813
3600,1851
3610,1831
3620,2212
3630,3087
3640,2816
3650,1259
3660,1770
3670,2078
3680,1873
3690,1899
3700,1904
3710,2037
3720,1904
3730,2000
3740,2055
3750,1927
3760,2099
3770,2064
3780,1987
3790,2223
3800,2043
3810,2362
3820,2225
3830,2235
3840,2162
3850,2271
3860,2135
3870,2121
3880,1902
3890,1846
3900,1711
3910,1775
3920,1493
3930,1808
3940,1493
3950,1658
3960,1590
3970,1779
3980,1489
3990,1911
4000,1907
4010,1909
4020,1920
4030,1926
4040,1933
4050,2310
4060,1751
4070,2213
4080,1840
4090,1968
4100,1579
4110,2000
4120,1523
4130,1925
4140,1379
4150,1827
4160,1429
4170,1822
4180,1427
4190,1790
4200,1045
4210,1041
4220,1040
4230,1044
4240,1031
4250,1422
4260,982
4270,1398
4280,1048
4290,1434
4300,851
4310,1491
4320,976
4330,1458
4340,1030
4350,1488
4360,1075
4370,2459
4380,2459
4390,1314
4400,912
4410,1731
4420,1233
4430,1826
4440,1322
4450,1881
4460,1243
4470,2099
4480,1520
4490,1863
4500,1658
4510,2150
4520,1683
4530,2432
4540,1788
4550,2342
4560,1911
4570,2502
4580,1968
4590,2594
4600,2021
4610,2559
4620,1767
4630,2370
4640,1712
4650,2349
4660,1499
4670,2207
4680,1650
4690,2213
4700,1731
4710,2303
4720,1650
4730,2221
4740,1750
4750,2429
4760,1605
4770,2469
4780,1667
4790,2461
4800,1680
4810,2448
4820,1764
4830,2322
4840,1899
4850,2386
4860,1795
4870,2452
4880,1651
4890,2416
4900,1969
4910,2585
4920,1888
4930,2589
4940,1680
4950,2579
4960,1808
4970,2267
4980,1713
4990,2735
5000,2752
5010,2768
5020,2771
5030,2783
5040,2801
5050,3029
5060,2056
5070,2846
5080,2076
5090,2591
5100,2793
5110,4095
5120,1744
5130,2232
5140,1968
5150,2394
5160,1936
5170,2607
5180,1822
5190,2446
5200,1914
5210,2459
5220,1886
5230,2559
5240,1990
5250,2513
5260,1934
5270,2610
5280,2074
5290,2726
5300,2103
5310,2770
5320,1958
5330,2725
5340,1990
5350,2579
5360,1790
5370,2337
5380,1673
5390,2305
5400,1630
5410,2064
5420,1750
5430,2181
5440,1691
5450,2270
5460,1665
5470,2190
5480,1727
5490,2240
5500,1715
5510,2263
5520,1733
5530,2221
5540,1731
5550,2346
5560,1680
5570,2171
5580,1778
5590,2138
5600,1699
5610,2296
5620,1711
5630,2261
5640,1794
5650,2245
5660,1728
5670,2320
5680,1730
5690,2064
5700,1595
5710,2031
5720,1693
5730,2086
5740,1643
5750,2015
5760,1582
5770,2038
5780,1771
5790,2113
5800,1714
5810,2167
5820,1663
5830,2416
5840,3343
5850,2389
5860,1234
5870,2063
5880,1737
5890,1975
5900,1839
5910,2181
5920,1829
5930,2114
5940,1743
5950,2046
5960,1838
5970,2087
5980,1840
5990,3402
6000,3397
6010,3403
6020,3396
6030,3403
6040,3390
6050,2915
6060,2267
6070,2387
6080,2255
6090,2128
6100,1947
6110,2007
6120,1745
6130,1790
6140,1674
6150,1664
6160,1564
6170,1726
6180,1616
6190,1651
6200,1522
6210,1563
6220,1410
6230,1585
6240,1501
6250,1567
6260,1505
6270,1558
6280,1408
6290,1506
6300,1479
6310,1471
6320,1535
6330,1502
6340,1484
6350,1485
6360,1509
6370,1563
6380,1585
6390,1562
6400,1661
6410,1558
6420,1648
6430,1616
6440,1810
6450,1655
6460,1741
6470,1554
6480,1591
6490,1415
6500,1585
6510,1469
6520,1535
6530,1453
6540,1535
6550,1442
6560,1634
6570,1552
6580,1738
6590,1443
6600,1837
6610,1591
6620,1766
6630,2352
6640,3424
6650,1207
6660,1535
6670,1903
6680,1839
6690,1678
6700,2062
6710,1690
6720,1989
6730,1741
6740,2112
6750,1829
6760,2170
6770,1923
6780,2263
6790,1872
6800,2278
6810,1987
6820,2514
6830,2167
6840,2458
6850,2153
6860,2623
6870,2060
6880,2495
6890,2096
6900,2323
6910,1890
6920,2251
6930,1877
6940,2224
6950,1835
6960,2293
6970,1938
6980,2355
6990,3346
7000,3338
7010,3349
7020,3296
7030,3284
7040,3265
7050,2640
7060,3530
7070,2778
7080,3616
7090,2742
7100,3578
7110,2766
7120,3570
7130,2746
7140,3507
7150,2718
7160,3441
7170,2577
7180,3319
7190,2506
7200,3155
7210,2477
7220,3061
7230,2323
7240,2894
7250,2085
7260,2640
7270,1872
7280,2514
7290,1764
7300,2386
7310,1731
7320,2330
7330,1584
7340,2208
7350,1523
7360,2111
7370,1453
7380,2014
7390,1324
7400,2310
7410,2674
7420,2311
7430,609
7440,1798
7450,1121
7460,1695
7470,997
7480,1639
7490,1037
7500,1722
7510,1051
7520,1709
7530,1031
7540,1767
7550,1044
7560,1706
7570,1088
7580,1869
7590,1190
7600,1918
7610,1195
7620,1870
7630,1188
7640,1857
7650,1104
7660,1680
7670,895
7680,1472
7690,787
7700,1425
7710,791
7720,1472
7730,799
7740,1431
7750,734
7760,1501
7770,921
7780,1535
7790,893
7800,1552
7810,933
7820,1691
7830,1100
7840,1710
7850,1049
7860,1774
7870,1101
7880,1696
7890,1195
7900,1855
7910,1203
7920,1790
7930,1421
7940,2082
7950,1398
7960,2193
7970,1490
7980,2046
7990,2119
8000,2117
8010,2113
8020,2115
8030,2110
8040,2112
8050,2064
8060,2309
8070,1792
8080,2229
8090,1667
8100,2179
8110,1628
8120,2161
8130,1890
8140,3666
8150,2271
8160,1563
8170,1475
8180,2205
8190,1574
8200,2128
8210,1601
8220,2159
8230,1598
8240,2107
8250,1726
8260,2106
8270,1711
8280,2274
8290,1744
8300,2257
8310,1566
8320,1564
8330,1535
8340,1535
8350,1552
8360,1535
8370,1535
8380,1509
8390,1590
8400,1936
8410,1488
8420,1815
8430,1394
8440,1721
8450,1451
8460,1790
8470,1494
8480,1795
8490,1521
8500,1871
8510,1526
8520,1851
8530,1595
8540,1841
8550,1669
8560,1905
8570,1623
8580,1904
8590,1616
8600,1911
8610,1669
8620,1933
8630,1637
8640,1951
8650,1697
8660,1837
8670,1677
8680,1961
8690,1846
8700,1947
8710,1843
8720,1935
8730,1669
8740,1789
8750,1667
8760,1769
8770,1696
8780,1799
8790,1715
8800,1822
8810,1730
8820,1829
8830,1799
8840,1823
8850,1842
8860,1874
8870,1840
8880,2262
8890,3253
8900,2281
8910,1361
8920,1852
8930,1988
8940,1892
8950,1955
8960,1925
8970,1966
8980,1968
8990,2346
9000,2349
9010,2351
9020,2352
9030,2347
9040,2355
9050,2608
9060,2233
9070,2468
9080,2323
9090,2484
9100,2352
9110,2523
9120,2271
9130,2350
9140,2043
9150,2192
9160,1824
9170,1980
9180,1776
9190,2059
9200,1758
9210,2057
9220,1742
9230,2115
9240,1773
9250,2064
9260,1801
9270,2111
9280,1782
9290,2135
9300,1779
9310,2151
9320,1759
9330,2155
9340,1772
9350,2091
9360,1763
9370,2106
9380,1705
9390,2164
9400,1682
9410,2189
9420,1689
9430,2118
9440,1630
9450,2239
9460,1719
9470,2270
9480,1665
9490,2247
9500,1623
9510,2042
9520,1578
9530,2064
9540,1535
9550,2062
9560,1581
9570,2129
9580,1522
9590,2138
9600,1519
9610,2147
9620,1566
9630,2128
9640,1505
9650,2180
9660,2341
9670,3667
9680,1165
9690,1848
9700,1648
9710,2151
9720,1493
9730,2192
9740,1510
9750,2219
9760,1606
9770,2257
9780,1562
9790,2307
9800,1602
9810,2370
9820,1717
9830,2438
9840,1815
9850,2501
9860,1841
9870,2630
9880,1858
9890,2483
9900,1822
9910,2397
9920,1584
9930,2221
9940,1461
9950,2128
9960,1373
9970,2139
9980,1379
9990,2257
10000,2266
10010,2283
10020,2288
10030,2299
10040,2317
10050,2499
10060,1573
10070,2357
10080,1617
10090,2280
10100,1591
10110,2257
10120,1582
10130,2192
10140,1561
10150,2224
10160,1521
10170,2224
10180,1524
10190,2187
10200,1634
10210,2351
10220,1667
10230,2325
10240,1592
10250,2192
10260,1488
10270,2177
10280,1456
10290,2163
10300,1509
10310,2158
10320,1520
10330,2223
10340,1535
10350,2241
10360,1587
10370,2191
10380,1585
10390,2211
10400,1904
10410,3811
10420,2206
10430,1712
10440,1584
10450,2362
10460,1689
10470,2347
10480,1731
10490,2415
10500,1776
10510,2418
10520,1856
10530,2371
10540,1914
10550,2514
10560,1941
10570,2559
10580,2025
10590,2623
10600,2112
10610,2688
10620,2119
10630,2678
10640,2081
10650,2549
10660,1921
10670,2394
10680,1728
10690,2347
10700,1743
10710,2282
10720,1746
10730,2326
10740,1841
10750,2358
10760,1855
10770,2376
10780,1901
10790,2383
10800,1962
10810,2445
10820,2006
10830,2480
10840,1961
10850,2449
10860,2081
10870,2454
10880,2017
10890,2515
10900,2080
10910,2578
10920,2112
10930,2544
10940,2259
10950,2770
10960,2261
10970,2699
10980,2211
10990,3137
11000,3152
11010,3155
11020,3159
11030,3157
11040,3162
11050,2869
11060,2271
11070,2609
11080,2325
11090,2647
11100,2265
11110,2559
11120,2322
11130,2624
11140,2784
11150,4095
11160,2490
11170,2096
11180,2334
11190,2645
11200,2287
11210,2613
11220,2308
11230,2622
11240,2382
11250,2591
11260,2419
11270,2609
11280,2431
11290,2650
11300,2478
11310,2672
11320,2533
11330,2745
11340,2559
11350,2738
11360,2679
11370,2727
11380,2545
11390,2539
11400,2371
11410,2276
11420,2175
11430,2206
11440,2160
11450,2149
11460,2149
11470,2146
11480,2137
11490,2103
11500,2103
11510,2175
11520,2130
11530,2094
11540,2170
11550,2091
11560,2144
11570,2045
11580,2101
11590,2045
11600,2154
11610,1998
11620,2112
11630,1968
11640,2113
11650,1982
11660,2087
11670,1974
11680,2129
11690,1975
11700,2169
11710,2096
11720,2202
11730,1987
11740,2132
11750,1812
11760,2039
11770,1850
11780,2014
11790,1850
11800,2047
11810,1807
11820,2032
11830,1821
11840,2079
11850,1835
11860,2085
11870,1815
11880,2074
11890,1902
11900,2914
11910,2974
11920,1592
11930,1468
11940,2126
11950,1699
11960,2015
11970,1680
11980,2092
11990,2550
12000,2542
12010,2543
12020,2525
12030,2515
12040,2512
12050,2113
12060,2293
12070,1963
12080,2364
12090,2064
12100,2385
12110,1931
12120,2448
12130,1906
12140,2319
12150,1691
12160,2095
12170,1507
12180,1819
12190,1824
12200,1851
12210,1872
12220,1861
12230,1329
12240,1813
12250,1251
12260,1818
12270,1281
12280,1766
12290,1205
12300,1729
12310,1231
12320,1808
12330,1273
12340,1842
12350,1269
12360,1815
12370,1278
12380,1783
12390,1345
12400,1890
12410,1337
12420,1910
12430,1341
12440,1916
12450,1385
12460,2093
12470,1516
12480,2090
12490,1530
12500,2009
12510,1387
12520,1955
12530,1360
12540,1936
12550,1401
12560,1936
12570,1392
12580,2067
12590,1417
12600,1999
12610,1461
12620,2029
12630,1429
12640,2043
12650,1615
12660,3130
12670,2516
12680,1520
12690,1280
12700,2131
12710,1415
12720,2054
12730,1411
12740,2065
12750,1478
12760,2046
12770,1481
12780,2045
12790,1488
12800,2112
12810,1508
12820,2192
12830,1582
12840,2265
12850,1750
12860,2303
12870,1709
12880,2318
12890,1682
12900,2197
12910,1502
12920,1985
12930,1282
12940,1890
12950,1242
12960,1868
12970,1249
12980,1842
12990,1798
13000,1777
13010,1789
13020,1760
13030,1755
13040,1760
13050,1654
13060,1915
13070,1425
13080,1899
13090,1360
13100,1963
13110,1321
13120,1902
13130,1321
13140,1904
13150,1337
13160,1836
13170,1295
13180,1933
13190,1403
13200,2060
13210,1452
13220,1933
13230,1370
13240,1820
13250,1296
13260,1861
13270,1355
13280,1891
13290,1366
13300,1879
13310,1392
13320,1835
13330,1402
13340,1918
13350,1440
13360,1905
13370,1472
13380,1898
13390,1893
13400,3462
13410,1698
13420,1440
13430,1462
13440,1943
13450,1434
13460,1950
13470,1516
13480,2011
13490,1535
13500,1998
13510,1584
13520,2002
13530,1680
13540,2035
13550,1651
13560,2210
13570,1830
13580,2256
13590,1867
13600,2355
13610,1872
13620,2304
13630,1935
13640,2141
13650,1698
13660,1902
13670,1559
13680,1840
13690,1424
13700,1840
13710,1507
13720,1808
13730,1488
13740,1795
13750,1509
13760,1833
13770,1603
13780,1825
13790,1616
13800,1889
13810,1617
13820,1917
13830,1664
13840,1902
13850,1645
13860,1918
13870,1655
13880,1915
13890,1655
13900,1871
13910,1712
13920,1950
13930,1860
13940,1991
13950,1851
13960,1894
13970,1727
13980,1769
13990,1895
14000,1907
14010,1897
14020,1895
14030,1900
14040,1900
14050,2017
14060,1835
14070,1891
14080,1921
14090,1841
14100,1886
14110,1840
14120,2291
14130,3313
14140,2181
14150,1318
14160,1904
14170,1938
14180,1861
14190,1885
14200,1861
14210,1925
14220,1880
14230,1965
14240,1863
14250,2023
14260,1935
14270,2055
14280,1990
14290,2097
14300,2061
14310,2210
14320,2096
14330,2291
14340,2147
14350,2290
14360,2065
14370,2158
14380,1861
14390,2027
14400,1737
14410,1863
14420,1587
14430,1856
14440,1616
14450,1837
14460,1607
14470,1871
14480,1670
14490,1895
14500,1650
14510,1939
14520,1659
14530,1936
14540,1746
14550,2000
14560,1703
14570,1988
14580,1744
14590,2032
14600,1727
14610,2066
14620,1690
14630,2032
14640,1668
14650,2035
14660,1830
14670,2109
14680,1825
14690,2131
14700,1653
14710,2006
14720,1586
14730,2032
14740,1587
14750,2019
14760,1558
14770,2057
14780,1611
14790,2000
14800,1664
14810,2081
14820,1648
14830,2026
14840,1622
14850,2273
14860,2704
14870,3082
14880,1103
14890,1978
14900,1730
14910,2067
14920,1675
14930,2143
14940,1633
14950,2204
14960,1734
14970,2234
14980,1712
14990,2474
15000,2490
15010,2507
15020,2483
15030,2513
15040,2551
15050,2762
15060,1967
15070,2551
15080,1971
15090,2494
15100,1799
15110,2256
15120,1649
15130,2064
15140,1509
15150,2032
15160,1435
15170,1971
15180,1414
15190,1926
15200,1423
15210,2019
15220,1453
15230,2064
15240,1475
15250,2099
15260,1488
15270,2128
15280,1461
15290,2122
15300,1520
15310,2125
15320,1470
15330,2155
15340,1482
15350,2098
15360,1487
15370,2249
15380,1649
15390,2314
15400,1597
15410,2322
15420,1478
15430,2170
15440,1454
15450,2192
15460,1465
15470,2227
15480,1456
15490,2165
15500,1456
15510,2171
15520,1449
15530,2138
15540,1448
15550,2112
15560,1463
15570,2435
15580,2688
15590,3103
15600,997
15610,2149
15620,1660
15630,2277
15640,1597
15650,2304
15660,1595
15670,2322
15680,1593
15690,2370
15700,1702
15710,2368
15720,1691
15730,2428
15740,1779
15750,2514
15760,1851
15770,2559
15780,1968
15790,2608
15800,1932
15810,2538
15820,1758
15830,2403
15840,1638
15850,2231
15860,1499
15870,2169
15880,1494
15890,2167
15900,1462
15910,1883
15920,1878
15930,1861
15940,1860
15950,1842
15960,1559
15970,2217
15980,1579
15990,2547
16000,2559
16010,2559
16020,2558
16030,2580
16040,2581
16050,2506
16060,1645
16070,2341
16080,1667
16090,2259
16100,1729
16110,2387
16120,1715
16130,2330
16140,1643
16150,2160
16160,1566
16170,2124
16180,1535
16190,2132
16200,1601
16210,2096
16220,1524
16230,2122
16240,1583
16250,2110
16260,1587
16270,2192
16280,1645
16290,2123
16300,2032
16310,3831
16320,2126
16330,1611
16340,1663
16350,2186
16360,1669
16370,2160
16380,1761
16390,2197
16400,1748
16410,2220
16420,1814
16430,2251
16440,1847
16450,2352
16460,1883
16470,2387
16480,1977
16490,2417
16500,2091
16510,2461
16520,2064
16530,2463
16540,2000
16550,2305
16560,1845
16570,2109
16580,1658
16590,1959
16600,1680
16610,1878
16620,1641
16630,1898
16640,1643
16650,1905
16660,1659
16670,1867
16680,1685
16690,1904
16700,1703
16710,1872
16720,1662
16730,1899
16740,1740
16750,1879
16760,1690
16770,1915
16780,1737
16790,1870
16800,1728
16810,1904
16820,1744
16830,1852
16840,1756
16850,1865
16860,1981
16870,2003
16880,1957
16890,1908
16900,1804
16910,1818
16920,1777
16930,1809
16940,1787
16950,1822
16960,1811
16970,1842
16980,1842
16990,2672
17000,2668
17010,2669
17020,2672
17030,2672
17040,2672
17050,2361
17060,2896
17070,3115
17080,1516
17090,1729
17100,2165
17110,1878
17120,1984
17130,1825
17140,1997
17150,1884
17160,2062
17170,1936
17180,2170
17190,2018
17200,2203
17210,2094
17220,2319
17230,2159
17240,2429
17250,2209
17260,2457
17270,2266
17280,2485
17290,2253
17300,2469
17310,2245
17320,2454
17330,2127
17340,2399
17350,2042
17360,2383
17370,2061
17380,2336
17390,2053
17400,2395
17410,2046
17420,2384
17430,2026
17440,2347
17450,1984
17460,2299
17470,1963
17480,2355
17490,1888
17500,2269
17510,1860
17520,2249
17530,1872
17540,2318
17550,1819
17560,2222
17570,1818
17580,2187
17590,1770
17600,2198
17610,1793
17620,2279
17630,1839
17640,2262
17650,1856
17660,2175
17670,1677
17680,2080
17690,1611
17700,2108
17710,1600
17720,2096
17730,1582
17740,2035
17750,1589
17760,2105
17770,1530
17780,2094
17790,1569
17800,2046
17810,1598
17820,2398
17830,2846
17840,2698
17850,1045
17860,2035
17870,1655
17880,2096
17890,1535
17900,2128
17910,1552
17920,2183
17930,1619
17940,2190
17950,1706
17960,2309
17970,1712
17980,2304
17990,2594
18000,2579
18010,2546
18020,2602
18030,2551
18040,2541
18050,2186
18060,2447
18070,1803
18080,2274
18090,1579
18100,2126
18110,1387
18120,1988
18130,1387
18140,1980
18150,1343
18160,1938
18170,1344
18180,1973
18190,1363
18200,2000
18210,1388
18220,2034
18230,1378
18240,2064
18250,1405
18260,2005
18270,1421
18280,2034
18290,1379
18300,2016
18310,1399
18320,1996
18330,1429
18340,2027
18350,1389
18360,2021
18370,1436
18380,2096
18390,1563
18400,2271
18410,1578
18420,2259
18430,1479
18440,2073
18450,1418
18460,2064
18470,1472
18480,2069
18490,1456
18500,2099
18510,1533
18520,2147
18530,1569
18540,2165
18550,1552
18560,2131
18570,1520
18580,2125
18590,1890
18600,3732
18610,1785
18620,1589
18630,1535
18640,2141
18650,1534
18660,2083
18670,1505
18680,2133
18690,1595
18700,2164
18710,1629
18720,2239
18730,1675
18740,2246
18750,1786
18760,2336
18770,1836
18780,2409
18790,1866
18800,2476
18810,1894
18820,2448
18830,1840
18840,2346
18850,1661
18860,2171
18870,1600
18880,2064
18890,1456
18900,2067
18910,1456
18920,2009
18930,1475
18940,2033
18950,1574
18960,2061
18970,1580
18980,2079
18990,1945
19000,1939
19010,1940
19020,1936
19030,1929
19040,1928
19050,1874
19060,2027
19070,1626
19080,2033
19090,1614
19100,2077
19110,1642
19120,2059
19130,1625
19140,2149
19150,1778
19160,2143
19170,1795
19180,2106
19190,1579
19200,1984
19210,1566
19220,1967
19230,1627
19240,1998
19250,1622
19260,1929
19270,1639
19280,2047
19290,1678
19300,1987
19310,1694
19320,2023
19330,1727
19340,2405
19350,3071
19360,2467
19370,1183
19380,1979
19390,1771
19400,1965
19410,1743
19420,1991
19430,1781
19440,1979
19450,1825
19460,2044
19470,1872
19480,2075
19490,1910
19500,2126
19510,1989
19520,2237
19530,2055
19540,2290
19550,2129
19560,2344
19570,2109
19580,2250
19590,2085
19600,2018
19610,1894
19620,1931
19630,1663
19640,1709
19650,1671
19660,1714
19670,1732
19680,1874
19690,1817
19700,1856
19710,1807
19720,1863
19730,1855
19740,1919
19750,1919
19760,1857
19770,1940
19780,1854
19790,1871
19800,1861
19810,1854
19820,1874
19830,1936
19840,1858
19850,1887
19860,1917
19870,1936
19880,1843
19890,1905
19900,1872
19910,2013
19920,1998
19930,2060
19940,1987
19950,2090
19960,1841
19970,1926
19980,1812
19990,1936
20000,1938
20010,1941
20020,1922
20030,1943
20040,1952
20050,2205
20060,1817
20070,2069
20080,1797
20090,2014
20100,1879
20110,2515
20120,3309
20130,2208
20140,1332
20150,2129
20160,1870
20170,2017
20180,1810
20190,2176
20200,1805
20210,2124
20220,1861
20230,2155
20240,1911
20250,2241
20260,1906
20270,2278
20280,1989
20290,2350
20300,2032
20310,2411
20320,2089
20330,2432
20340,2033
20350,2405
20360,1905
20370,2211
20380,1715
20390,2019
20400,1584
20410,2032
20420,1535
20430,1999
20440,1535
20450,1991
20460,1569
20470,2065
20480,1625
20490,2034
20500,1533
20510,2091
20520,1613
20530,2064
20540,1607
20550,2102
20560,1577
20570,2066
20580,1582
20590,2043
20600,1563
20610,2064
20620,1615
20630,2068
20640,1669
20650,2272
20660,1658
20670,2215
20680,1645
20690,2062
20700,1574
20710,2085
20720,1587
20730,2112
20740,1535
20750,2164
20760,1589
20770,2181
20780,1646
20790,2177
20800,1668
20810,2224
20820,1650
20830,2206
20840,1888
20850,3543
20860,2494
20870,1686
20880,1535
20890,2306
20900,1658
20910,2270
20920,1639
20930,2273
20940,1701
20950,2333
20960,1762
20970,2394
20980,1786
20990,2625
21000,2637
21010,2643
21020,2641
21030,2664
21040,2693
21050,2880
21060,1987
21070,2629
21080,1973
21090,2512
21100,1808
21110,2288
21120,1593
21130,2191
21140,1520
21150,2094
21160,1520
21170,2128
21180,1481
21190,2148
21200,1597
21210,2160
21220,1577
21230,2171
21240,1613
21250,2191
21260,1562
21270,2158
21280,1579
21290,2157
21300,1511
21310,2134
21320,1535
21330,2115
21340,1515
21350,2192
21360,1590
21370,2237
21380,1734
21390,2254
21400,1687
21410,2178
21420,1519
21430,2111
21440,1525
21450,2137
21460,1579
21470,2130
21480,1583
21490,2161
21500,1594
21510,2145
21520,1607
21530,2219
21540,1602
21550,2242
21560,1683
21570,2671
21580,3157
21590,2320
21600,1102
21610,2287
21620,1649
21630,2145
21640,1654
21650,2190
21660,1627
21670,2187
21680,1693
21690,2225
21700,1718
21710,2267
21720,1819
21730,2326
21740,1866
21750,2327
21760,1935
21770,2496
21780,1967
21790,2434
21800,2043
21810,2448
21820,1837
21830,2279
21840,1689
21850,2083
21860,1584
21870,2000
21880,1562
21890,2064
21900,1648
21910,2052
21920,1631
21930,2062
21940,1557
21950,2051
21960,1613
21970,2064
21980,1697
21990,2527
22000,2512
22010,2478
22020,2531
22030,2519
22040,2525
22050,2293
22060,1659
22070,2093
22080,1719
22090,2047
22100,1740
22110,2096
22120,1810
22130,2159
22140,1754
22150,2027
22160,1613
22170,1953
22180,1609
22190,1914
22200,1648
22210,1891
22220,1648
22230,1945
22240,1664
22250,1942
22260,1744
22270,1979
22280,1750
22290,1975
22300,1850
22310,2878
22320,3088
22330,1597
22340,1477
22350,2141
22360,1793
22370,2032
22380,1865
22390,2027
22400,1883
22410,2037
22420,1890
22430,2070
22440,1950
22450,2098
22460,2038
22470,2190
22480,2064
22490,2237
22500,2188
22510,2292
22520,2208
22530,2263
22540,2151
22550,2194
22560,2032
22570,2039
22580,1881
22590,1811
22600,1790
22610,1808
22620,1745
22630,1805
22640,1786
22650,1818
22660,1808
22670,1799
22680,1847
22690,1799
22700,1873
22710,1840
22720,1863
22730,1834
22740,1911
22750,1765
22760,1887
22770,1767
22780,1903
22790,1797
22800,1870
22810,1731
22820,1909
22830,1794
22840,1957
22850,1875
22860,2039
22870,1895
22880,2071
22890,1819
22900,1906
22910,1754
22920,1968
22930,1728
22940,1988
22950,1775
22960,1987
22970,1776
22980,2013
22990,2609
23000,2651
23010,2647
23020,2640
23030,2641
23040,2640
23050,2453
23060,3716
23070,2096
23080,1606
23090,1861
23100,2160
23110,1759
23120,2078
23130,1796
23140,2092
23150,1854
23160,2122
23170,1766
23180,2146
23190,1838
23200,2224
23210,1813
23220,2271
23230,1937
23240,2355
23250,1959
23260,2362
23270,1943
23280,2311
23290,1872
23300,2154
23310,1602
23320,1957
23330,1488
23340,1843
23350,1425
23360,1966
23370,1966
23380,1966
23390,1969
23400,1988
23410,1393
23420,1850
23430,1365
23440,1874
23450,1392
23460,1881
23470,1421
23480,1904
23490,1424
23500,1921
23510,1433
23520,1968
23530,1499
23540,2063
23550,1507
23560,2096
23570,1581
23580,2167
23590,1728
23600,2292
23610,1761
23620,2301
23630,1712
23640,2224
23650,1581
23660,2192
23670,1626
23680,2177
23690,1598
23700,2239
23710,1657
23720,2273
23730,1680
23740,2274
23750,1734
23760,2311
23770,1728
23780,2319
23790,1952
23800,3830
23810,2439
23820,1747
23830,1622
23840,2401
23850,1714
23860,2343
23870,1735
23880,2297
23890,1775
23900,2356
23910,1744
23920,2374
23930,1797
23940,2427
23950,1801
23960,2463
23970,1855
23980,2522
23990,2287
24000,2277
24010,2266
24020,2258
24030,2258
24040,2251
24050,1968
24060,2301
24070,1615
24080,2174
24090,1497
24100,2167
24110,1519
24120,2135
24130,1535
24140,2170
24150,1566
24160,2178
24170,1669
24180,2178
24190,1579
24200,2257
24210,1604
24220,2230
24230,1597
24240,2195
24250,1600
24260,2160
24270,1593
24280,2146
24290,1616
24300,2235
24310,1723
24320,2338
24330,1731
24340,2319
24350,1648
24360,2147
24370,1606
24380,2081
24390,1632
24400,2148
24410,1602
24420,2165
24430,1600
24440,2160
24450,1575
24460,2183
24470,1616
24480,2194
24490,1609
24500,2229
24510,2174
24520,3895
24530,1595
24540,1722
24550,1678
24560,2176
24570,1655
24580,2160
24590,1676
24600,2171
24610,1711
24620,2219
24630,1722
24640,2320
24650,1802
24660,2310
24670,1891
24680,2416
24690,1925
24700,2423
24710,1981
24720,2495
24730,2000
24740,2475
24750,1898
24760,2335
24770,1745
24780,2120
24790,1603
24800,2026
24810,1563
24820,1969
24830,1557
24840,1967
24850,1531
24860,1985
24870,1578
24880,1984
24890,1574
24900,2019
24910,1535
24920,2017
24930,1553
24940,2009
24950,1619
24960,2010
24970,1648
24980,1968
24990,1994
25000,1986
25010,1969
25020,1991
25030,1985
25040,2007
25050,1996
25060,2091
25070,1794
25080,2053
25090,1648
25100,1875
25110,1630
25120,1870
25130,1658
25140,1942
25150,1648
25160,1921
25170,1663
25180,1962
25190,1742
25200,1931
25210,1739
25220,1941
25230,1755
25240,2217
25250,3007
25260,2688
25270,1167
25280,1872
25290,1851
25300,1916
25310,1783
25320,1933
25330,1834
25340,1972
25350,1875
25360,1958
25370,1885
25380,2013
25390,1984
25400,2064
25410,2020
25420,2134
25430,2096
25440,2166
25450,2093
25460,2190
25470,2150
25480,2084
25490,2029
25500,1958
25510,1838
25520,1791
25530,1729
25540,1733
25550,1687
25560,1693
25570,1756
25580,1729
25590,1744
25600,1744
25610,1774
25620,1687
25630,1831
25640,1741
25650,1826
25660,1765
25670,1871
25680,1755
25690,1865
25700,1761
25710,1845
25720,1715
25730,1871
25740,1779
25750,1856
25760,1779
25770,2038
25780,1856
25790,2028
25800,1787
25810,1936
25820,1667
25830,1892
25840,1649
25850,1887
25860,1662
25870,1909
25880,1648
25890,1905
25900,1648
25910,1947
25920,1685
25930,1972
25940,1708
25950,2006
25960,1778
25970,2624
25980,3189
25990,2039
26000,2073
26010,2060
26020,2064
26030,2087
26040,2076
26050,2352
26060,1762
26070,2192
26080,1827
26090,2190
26100,1823
26110,2259
26120,1840
26130,2223
26140,1926
26150,2337
26160,1922
26170,2401
26180,1968
26190,2463
26200,1975
26210,2309
26220,1839
26230,2172
26240,1635
26250,2085
26260,1526
26270,2019
26280,1534
26290,2009
26300,1575
26310,2022
26320,1535
26330,2111
26340,1569
26350,2068
26360,1599
26370,2067
26380,1570
26390,2099
26400,1535
26410,2069
26420,1583
26430,2086
26440,1502
26450,2109
26460,1535
26470,2186
26480,1664
26490,2222
26500,1680
26510,2188
26520,1556
26530,2124
26540,1490
26550,2145
26560,1556
26570,2112
26580,1631
26590,2178
26600,1604
26610,2192
26620,1637
26630,2202
26640,1626
26650,2241
26660,1635
26670,2390
26680,2682
26690,3456
26700,1155
26710,2041
26720,1741
26730,2266
26740,1637
26750,2222
26760,1680
26770,2267
26780,1687
26790,2306
26800,1671
26810,2373
26820,1783
26830,2433
26840,1837
26850,2490
26860,1925
26870,2543
26880,1999
26890,2597
26900,1968
26910,2524
26920,1872
26930,2379
26940,1703
26950,2197
26960,1535
26970,2127
26980,1488
26990,2235
27000,2221
27010,2219
27020,2262
27030,2273
27040,2239
27050,2355
27060,1587
27070,2235
27080,1776
27090,1790
27100,1792
27110,1823
27120,1808
27130,2112
27140,1520
27150,2057
27160,1467
27170,2112
27180,1636
27190,2180
27200,1613
27210,2227
27220,1553
27230,2032
27240,1497
27250,2081
27260,1488
27270,2045
27280,1535
27290,2079
27300,1535
27310,2135
27320,1575
27330,2128
27340,1613
27350,2135
27360,1625
27370,2181
27380,2017
27390,3814
27400,1765
27410,1700
27420,1689
27430,2241
27440,1675
27450,2236
27460,1735
27470,2192
27480,1776
27490,2322
27500,1787
27510,2370
27520,1898
27530,2374
27540,1974
27550,2458
27560,2041
27570,2542
27580,2119
27590,2627
27600,2119
27610,2544
27620,2037
27630,2417
27640,1874
27650,2183
27660,1770
27670,2128
27680,1715
27690,2127
27700,1669
27710,2077
27720,1699
27730,2143
27740,1771
27750,2131
27760,1754
27770,2134
27780,1759
27790,2109
27800,1715
27810,2090
27820,1678
27830,2064
27840,1723
27850,2047
27860,1712
27870,2063
27880,1701
27890,2102
27900,1904
27910,2146
27920,1869
27930,2140
27940,1776
27950,1991
27960,1691
27970,1961
27980,1744
27990,2552
28000,2537
28010,2559
28020,2538
28030,2538
28040,2530
28050,2211
28060,1808
28070,2092
28080,1826
28090,2016
28100,2496
28110,3555
28120,1579
28130,1631
28140,1870
28150,2002
28160,1808
28170,1967
28180,1856
28190,2004
28200,1904
28210,1984
28220,1956
28230,2035
28240,1991
28250,2112
28260,2009
28270,2141
28280,2139
28290,2205
28300,2183
28310,2241
28320,2214
28330,2218
28340,2089
28350,1999
28360,1946
28370,1863
28380,1786
28390,1738
28400,1743
28410,1697
28420,1757
28430,1724
28440,1790
28450,1711
28460,1813
28470,1734
28480,1821
28490,1719
28500,1819
28510,1738
28520,1822
28530,1715
28540,1815
28550,1699
28560,1853
28570,1707
28580,1840
28590,1684
28600,1861
28610,1702
28620,1967
28630,1855
28640,1967
28650,1846
28660,1959
28670,1665
28680,1888
28690,1657
28700,1922
28710,1689
28720,1926
28730,1658
28740,1993
28750,1699
28760,1968
28770,1712
28780,2032
28790,1721
28800,2032
28810,1701
28820,2256
28830,2817
28840,3056
28850,1212
28860,1904
28870,1809
28880,2074
28890,1749
28900,2099
28910,1762
28920,2112
28930,1794
28940,2167
28950,1771
28960,2221
28970,1793
28980,2256
28990,2626
29000,2628
29010,2640
29020,2636
29030,2631
29040,2621
29050,2191
29060,2370
29070,1893
29080,2197
29090,1668
29100,2016
29110,1477
29120,1950
29130,1462
29140,1914
29150,1458
29160,1990
29170,1499
29180,1980
29190,1488
29200,1984
29210,1518
29220,2014
29230,1459
29240,2064
29250,1502
29260,2001
29270,1533
29280,2023
29290,1483
29300,1999
29310,1473
29320,2033
29330,1489
29340,2128
29350,1641
29360,2128
29370,1637
29380,2113
29390,1518
29400,2082
29410,1442
29420,2112
29430,1479
29440,2039
29450,1516
29460,2069
29470,1556
29480,2139
29490,1527
29500,2160
29510,1618
29520,2163
29530,1593
29540,2453
29550,2816
29560,2960
29570,989
29580,2110
29590,1673
29600,2180
29610,1657
29620,2175
29630,1675
29640,2237
29650,1722
29660,2279
29670,1744
29680,2302
29690,1802
29700,2448
29710,1841
29720,2439
29730,1998
29740,2548
29750,1939
29760,2559
29770,1939
29780,2463
29790,1840
29800,2305
29810,1647
29820,2160
29830,1505
29840,2128
29850,1451
29860,2080
29870,1494
29880,2081
29890,1528
29900,2177
29910,1514
29920,2160
29930,1553
29940,2173
29950,1584
29960,2165
29970,1568
29980,2197
29990,1965
30000,1955
30010,1954
30020,1923
30030,1936
30040,1931
30050,1767
30060,2279
30070,1741
30080,2252
30090,1717
30100,2175
30110,1514
30120,2080
30130,1485
30140,2064
30150,1528
30160,2087
30170,1488
30180,2106
30190,1589
30200,2158
30210,1602
30220,2160
30230,1602
30240,2159
30250,1592
30260,2521
30270,2993
30280,2506
30290,1079
30300,2183
30310,1697
30320,2127
30330,1680
30340,2176
30350,1659
30360,2221
30370,1719
30380,2226
30390,1771
30400,2246
30410,1813
30420,2329
30430,1815
30440,2359
30450,1904
30460,2426
30470,1981
30480,2451
30490,1950
30500,2349
30510,1840
30520,2175
30530,1647
30540,2031
30550,1535
30560,1939
30570,1531
30580,1941
30590,1509
30600,1982
30610,1552
30620,2005
30630,1535
30640,1957
30650,1583
30660,1986
30670,1627
30680,1973
30690,1618
30700,1974
30710,1618
30720,1904
30730,1598
30740,1946
30750,1683
30760,2083
30770,1757
30780,2053
30790,1693
30800,1818
30810,1801
30820,1797
30830,1782
30840,1825
30850,1552
30860,1855
30870,1631
30880,1863
30890,1626
30900,1868
30910,1609
30920,1819
30930,1623
30940,1808
30950,1989
30960,3233
30970,1978
30980,1264
30990,1896
31000,1894
31010,1898
31020,1897
31030,1909
31040,1905
31050,2043
31060,1991
31070,1929
31080,2032
31090,1950
31100,2128
31110,2004
31120,2159
31130,2123
31140,2242
31150,2218
31160,2220
31170,2242
31180,2262
31190,2161
31200,2128
31210,1994
31220,1959
31230,1868
31240,1810
31250,1786
31260,1851
31270,1807
31280,1760
31290,1890
31300,1823
31310,1845
31320,1860
31330,1904
31340,1836
31350,1958
31360,1862
31370,1957
31380,1902
31390,1972
31400,1895
31410,2064
31420,1978
31430,2160
31440,1968
31450,2146
31460,1968
31470,1971
31480,1838
31490,2017
31500,1806
31510,2014
31520,1795
31530,2025
31540,1754
31550,1999
31560,1776
31570,2053
31580,1859
31590,2082
31600,1808
31610,2097
31620,2201
31630,3626
31640,2002
31650,1499
31660,1854
31670,2097
31680,1747
31690,2139
31700,1814
31710,2104
31720,1911
31730,2190
31740,1861
31750,2198
31760,1882
31770,2260
31780,1929
31790,2283
31800,2011
31810,2430
31820,2082
31830,2419
31840,2054
31850,2464
31860,1963
31870,2304
31880,1775
31890,2075
31900,1664
31910,1990
31920,1569
31930,1995
31940,1502
31950,2015
31960,1595
31970,2012
31980,1572
31990,1991
32000,1985
32010,2000
32020,2003
32030,2013
32040,2018
32050,2293
32060,1644
32070,2188
32080,1762
32090,2240
32100,1695
32110,2176
32120,1633
32130,2105
32140,1535
32150,2066
32160,1559
32170,2112
32180,1561
32190,2086
32200,1499
32210,2169
32220,1584
32230,2161
32240,1601
32250,2199
32260,1647
32270,2213
32280,2357
32290,3718
32300,1293
32310,1877
32320,1693
32330,2211
32340,1631
32350,2229
32360,1632
32370,2274
32380,1670
32390,2343
32400,1719
32410,2343
32420,1777
32430,2381
32440,1826
32450,2411
32460,1945
32470,2464
32480,1897
32490,2512
32500,1918
32510,2479
32520,1778
32530,2321
32540,1620
32550,2130
32560,1491
32570,2087
32580,1473
32590,2069
32600,1456
32610,2138
32620,1486
32630,2125
32640,1493
32650,2095
32660,1511
32670,2150
32680,1475
32690,2134
32700,1530
32710,2131
32720,1637
32730,2249
32740,1658
32750,2230
32760,1562
32770,2103
32780,1469
32790,2045
32800,1449
32810,2071
32820,1491
32830,2033
32840,1499
32850,2112
32860,1510
32870,2109
32880,1643
32890,2164
32900,1520
32910,2146
32920,1826
32930,3370
32940,2516
32950,1632
32960,1430
32970,2259
32980,1598
32990,2379
33000,2413
33010,2420
33020,2428
33030,2461
33040,2448
33050,2439
33060,1715
33070,2365
33080,1825
33090,2371
33100,1874
33110,2417
33120,1932
33130,2491
33140,1937
33150,2481
33160,1846
33170,2357
33180,1765
33190,2158
33200,1581
33210,2061
33220,1529
33230,2064
33240,1491
33250,2065
33260,1535
33270,2103
33280,1620
33290,2089
33300,1617
33310,2163
33320,1652
33330,2112
33340,1616
33350,2113
33360,1747
33370,2228
33380,1712
33390,2223
33400,1653
33410,2081
33420,1567
33430,2056
33440,1598
33450,2041
33460,1638
33470,2016
33480,1664
33490,2065
33500,1650
33510,2029
33520,1709
33530,2101
33540,1712
33550,2107
33560,1857
33570,2953
33580,3114
33590,1750
33600,1482
33610,2202
33620,1744
33630,2088
33640,1782
33650,2104
33660,1798
33670,2128
33680,1789
33690,2151
33700,1859
33710,2163
33720,1891
33730,2226
33740,1965
33750,2289
33760,2065
33770,2360
33780,2106
33790,2323
33800,2063
33810,2185
33820,1904
33830,2042
33840,1744
33850,1839
33860,1678
33870,1870
33880,1600
33890,1867
33900,1741
33910,1875
33920,1702
33930,1873
33940,1728
33950,1870
33960,1699
33970,1914
33980,1728
33990,2538
34000,2525
34010,2523
34020,2515
34030,2523
34040,2512
34050,2098
34060,1806
34070,1855
34080,1760
34090,1767
34100,1744
34110,1804
34120,1775
34130,1809
34140,1777
34150,1807
34160,1817
34170,1801
34180,1867
34190,1776
34200,1893
34210,1991
34220,2805
34230,3004
34240,1423
34250,1630
34260,2032
34270,1837
34280,1917
34290,1907
34300,2032
34310,1934
34320,2065
34330,1979
34340,2112
34350,2047
34360,2187
34370,2011
34380,2263
34390,2161
34400,2330
34410,2176
34420,2410
34430,2187
34440,2395
34450,2112
34460,2223
34470,1921
34480,2114
34490,1749
34500,1945
34510,1692
34520,1958
34530,1657
34540,1651
34550,1653
34560,1657
34570,1649
34580,2030
34590,1681
34600,2015
34610,1722
34620,1988
34630,1795
34640,2003
34650,1678
34660,2134
34670,1795
34680,2165
34690,1761
34700,2149
34710,1776
34720,2035
34730,1619
34740,2021
34750,1705
34760,1995
34770,1641
34780,2058
34790,1623
34800,2093
34810,1626
34820,2065
34830,1689
34840,2109
34850,1692
34860,2127
34870,1902
34880,3373
34890,2531
34900,1645
34910,1603
34920,2263
34930,1663
34940,2139
34950,1704
34960,2143
34970,1734
34980,2207
34990,2472
35000,2454
35010,2451
35020,2431
35030,2434
35040,2424
35050,2083
35060,2463
35070,2030
35080,2507
35090,1955
35100,2492
35110,1863
35120,2351
35130,1699
35140,2181
35150,1524
35160,2039
35170,1463
35180,2054
35190,1492
35200,2043
35210,1499
35220,2071
35230,1535
35240,2095
35250,1535
35260,2147
35270,1593
35280,2111
35290,1587
35300,2191
35310,1584
35320,2138
35330,1535
35340,2163
35350,1654
35360,2227
35370,1670
35380,2236
35390,1498
35400,2042
35410,1502
35420,2120
35430,1452
35440,2094
35450,1493
35460,2093
35470,1505
35480,2150
35490,1535
35500,2221
35510,1589
35520,2213
35530,1597
35540,2375
35550,2660
35560,3361
35570,1131
35580,2074
35590,1715
35600,2224
35610,1638
35620,2246
35630,1663
35640,2289
35650,1674
35660,2313
35670,1741
35680,2333
35690,1792
35700,2369
35710,1841
35720,2492
35730,1910
35740,2559
35750,1942
35760,2595
35770,1999
35780,2502
35790,1855
35800,2429
35810,1695
35820,2192
35830,1604
35840,2133
35850,1523
35860,2099
35870,1515
35880,2127
35890,1619
35900,2193
35910,1638
35920,2227
35930,1648
35940,2279
35950,1719
35960,2266
35970,1703
35980,2278
35990,2032
36000,2023
36010,2027
36020,2012
36030,2009
36040,2006
36050,1968
36060,2422
36070,1872
36080,2407
36090,1808
36100,2192
36110,1667
36120,2171
36130,1633
36140,2167
36150,1589
36160,2160
36170,1616
36180,2176
36190,1664
36200,2112
36210,1694
36220,2133
36230,1652
36240,2160
36250,1904
36260,3299
36270,2501
36280,1605
36290,1584
36300,2243
36310,1694
36320,2128
36330,1744
36340,2210
36350,1793
36360,2259
36370,1808
36380,2235
36390,1835
36400,2279
36410,1904
36420,2359
36430,1979
36440,2421
36450,1997
36460,2405
36470,2129
36480,2448
36490,2032
36500,2361
36510,1865
36520,2128
36530,1712
36540,2000
36550,1567
36560,2018
36570,1615
36580,1974
36590,1686
36600,1942
36610,1666
36620,1954
36630,1664
36640,1984
36650,1759
36660,2007
36670,1744
36680,1985
36690,1712
36700,1975
36710,1687
36720,1990
36730,1712
36740,1936
36750,1712
36760,1931
36770,1722
36780,1877
36790,1734
36800,1921
36810,1725
36820,1984
36830,1811
36840,1961
36850,1826
36860,1872
36870,1741
36880,1862
36890,1757
36900,1857
36910,1746
36920,1891
36930,1771
36940,1905
36950,1819
36960,1921
36970,1845
36980,1911
36990,1488
37000,1438
37010,1501
37020,1506
37030,1519
37040,1527
37050,2001
37060,2109
37070,2000
37080,2011
37090,1999
37100,1984
37110,2025
37120,1996
37130,2075
37140,2030
37150,2117
37160,2056
37170,2176
37180,2167
37190,2246
37200,2238
37210,2318
37220,2246
37230,2307
37240,2234
37250,2288
37260,2066
37270,2125
37280,1837
37290,1954
37300,1725
37310,1793
37320,1658
37330,1881
37340,1586
37350,1858
37360,1727
37370,1869
37380,1684
37390,1922
37400,1693
37410,1886
37420,1681
37430,1905
37440,1694
37450,1904
37460,1643
37470,1967
37480,1696
37490,1925
37500,1681
37510,1962
37520,1664
37530,1975
37540,1649
37550,1999
37560,1666
37570,1982
37580,1725
37590,2085
37600,1808
37610,2109
37620,1863
37630,2205
37640,1813
37650,2078
37660,1790
37670,2150
37680,1715
37690,2078
37700,1746
37710,2080
37720,1750
37730,2132
37740,1667
37750,2188
37760,1722
37770,2160
37780,1707
37790,2339
37800,2800
37810,2964
37820,1072
37830,2037
37840,1746
37850,2114
37860,1709
37870,2176
37880,1683
37890,2199
37900,1742
37910,2249
37920,1744
37930,2322
37940,1863
37950,2357
37960,1902
37970,2438
37980,1954
37990,2261
38000,2245
38010,2286
38020,2281
38030,2291
38040,2299
38050,2581
38060,1810
38070,2231
38080,1667
38090,2128
38100,1555
38110,2134
38120,1518
38130,2101
38140,1520
38150,2112
38160,1527
38170,2159
38180,1535
38190,2113
38200,1515
38210,2112
38220,1566
38230,2110
38240,1522
38250,2094
38260,2114
38270,2105
38280,2101
38290,2111
38300,1535
38310,2133
38320,1520
38330,2138
38340,1470
38350,2079
38360,1583
38370,2192
38380,1658
38390,2197
38400,1604
38410,2110
38420,1482
38430,2085
38440,1479
38450,2101
38460,1476
38470,2134
38480,1520
38490,2170
38500,1571
38510,2116
38520,1589
38530,2199
38540,1604
38550,2192
38560,1742
38570,2961
38580,2982
38590,1935
38600,1319
38610,2320
38620,1664
38630,2221
38640,1675
38650,2291
38660,1681
38670,2273
38680,1728
38690,2250
38700,1776
38710,2405
38720,1860
38730,2469
38740,1947
38750,2510
38760,1965
38770,2617
38780,2014
38790,2610
38800,1999
38810,2482
38820,1776
38830,2283
38840,1642
38850,2165
38860,1533
38870,2076
38880,1553
38890,2083
38900,1488
38910,2099
38920,1530
38930,2107
38940,1566
38950,2113
38960,1535
38970,2137
38980,1557
38990,2384
39000,2404
39010,2402
39020,2415
39030,2416
39040,2422
39050,2362
39060,1649
39070,2207
39080,1643
39090,2142
39100,1631
39110,2172
39120,1615
39130,2128
39140,1644
39150,2099
39160,1637
39170,2158
39180,1611
39190,2128
39200,1653
39210,2091
39220,1627
39230,2176
39240,1742
39250,2187
39260,1684
39270,2161
39280,1591
39290,2031
39300,1600
39310,2032
39320,1581
39330,2013
39340,1611
39350,2047
39360,1626
39370,2096
39380,1607
39390,2123
39400,1649
39410,2065
39420,1695
39430,2481
39440,3109
39450,2387
39460,1187
39470,2139
39480,1762
39490,2097
39500,1754
39510,2115
39520,1773
39530,2112
39540,1808
39550,2156
39560,1827
39570,2146
39580,1871
39590,2263
39600,1943
39610,2326
39620,2065
39630,2379
39640,2090
39650,2367
39660,2012
39670,2368
39680,1947
39690,2117
39700,1797
39710,1957
39720,1757
39730,1903
39740,1658
39750,1873
39760,1648
39770,1858
39780,1680
39790,1904
39800,1753
39810,1919
39820,1771
39830,1957
39840,1776
39850,1958
39860,1777
39870,1920
39880,1796
39890,1943
39900,1814
39910,1943
39920,1857
39930,1951
39940,1853
39950,1919
39960,1827
39970,1919
39980,1863
39990,2581
40000,2559
40010,2559
40020,2559
40030,2558
40040,2559
40050,2204
40060,1971
40070,2110
40080,2128
40090,2065
40100,2032
40110,1968
40120,1882
40130,1814
40140,1890
40150,1834
40160,1824
40170,1761
40180,1812
40190,1762
40200,1890
40210,1741
40220,1834
40230,1803
40240,1916
40250,1787
40260,1930
40270,2263
40280,3377
40290,1778
40300,1470
40310,1885
40320,2022
40330,1793
40340,2028
40350,1858
40360,2018
40370,1872
40380,2083
40390,1885
40400,2125
40410,1938
40420,2159
40430,2002
40440,2203
40450,2047
40460,2327
40470,2098
40480,2349
40490,2001
40500,2351
40510,2000
40520,2238
40530,1921
40540,2057
40550,1673
40560,1916
40570,1604
40580,1846
40590,1567
40600,1842
40610,1631
40620,1963
40630,1558
40640,2022
40650,1659
40660,1983
40670,1648
40680,2010
40690,1648
40700,1987
40710,1647
40720,2000
40730,1609
40740,2007
40750,1648
40760,1975
40770,1599
40780,2002
40790,1520
40800,2033
40810,1600
40820,2113
40830,1637
40840,2038
40850,1680
40860,2091
40870,1664
40880,2153
40890,1779
40900,2179
40910,1745
40920,2164
40930,1648
40940,2129
40950,1573
40960,2127
40970,1635
40980,2053
40990,2247
41000,2247
41010,2231
41020,2229
41030,2224
41040,2208
41050,1781
41060,2190
41070,1734
41080,2689
41090,3170
41100,2219
41110,1208
41120,2205
41130,1681
41140,2153
41150,1636
41160,2172
41170,1634
41180,2226
41190,1621
41200,2218
41210,1674
41220,2219
41230,1678
41240,2281
41250,1743
41260,2346
41270,1820
41280,2393
41290,1850
41300,2445
41310,1821
41320,2431
41330,1702
41340,2311
41350,1651
41360,2147
41370,1462
41380,2080
41390,1440
41400,2067
41410,1499
41420,2064
41430,1518
41440,2112
41450,1584
41460,2142
41470,1607
41480,2157
41490,1581
41500,2170
41510,1535
41520,2193
41530,1535
41540,2182
41550,1575
41560,2165
41570,1582
41580,2203
41590,1577
41600,2229
41610,1615
41620,2160
41630,1650
41640,2257
41650,1644
41660,2260
41670,1725
41680,2385
41690,1845
41700,2322
41710,1744
41720,2259
41730,1600
41740,2205
41750,1567
41760,2208
41770,1583
41780,2209
41790,1683
41800,2206
41810,1621
41820,2189
41830,1648
41840,2237
41850,1637
41860,2247
41870,2076
41880,4095
41890,1989
41900,1723
41910,1711
41920,2322
41930,1715
41940,2343
41950,1721
41960,2331
41970,2114
41980,2240
41990,2250
42000,2243
42010,2254
42020,2257
42030,2276
42040,2334
42050,2287
42060,2307
42070,2298
42080,2726
42090,2122
42100,2634
42110,1995
42120,2484
42130,1856
42140,2247
42150,1685
42160,2131
42170,1520
42180,2076
42190,1514
42200,2066
42210,1559
42220,2108
42230,1569
42240,2081
42250,1635
42260,2025
42270,1605
42280,2117
42290,1622
42300,2047
42310,1679
42320,2044
42330,1625
42340,2057
42350,1627
42360,2098
42370,1624
42380,2047
42390,1594
42400,2080
42410,1658
42420,2078
42430,1671
42440,2128
42450,1717
42460,2150
42470,1736
42480,2178
42490,1840
42500,2150
42510,1809
42520,2177
42530,1661
42540,2004
42550,1644
42560,1857
42570,1571
42580,1921
42590,1553
42600,1975
42610,1600
42620,1920
42630,1651
42640,1925
42650,1658
42660,1994
42670,1714
42680,2496
42690,3136
42700,1904
42710,1297
42720,2098
42730,1682
42740,1923
42750,1682
42760,1957
42770,1747
42780,1958
42790,1819
42800,2041
42810,1792
42820,2105
42830,1906
42840,2128
42850,2000
42860,2201
42870,2096
42880,2321
42890,2123
42900,2355
42910,2126
42920,2250
42930,2010
42940,2061
42950,1838
42960,1909
42970,1760
42980,1845
42990,1671
43000,1839
43010,1737
43020,2067
43030,2077
43040,2095
43050,2098
43060,2112
43070,2218
43080,2055
43090,1997
43100,2076
43110,1997
43120,2013
43130,1941
43140,1904
43150,1949
43160,1883
43170,1904
43180,1865
43190,1863
43200,1846
43210,1840
43220,1723
43230,1840
43240,1766
43250,1845
43260,1841
43270,1927
43280,1803
43290,1935
43300,1767
43310,1744
43320,1715
43330,1845
43340,1648
43350,1841
43360,1724
43370,1871
43380,1775
43390,1889
43400,1814
43410,1936
43420,1759
43430,1971
43440,1780
43450,2174
43460,2930
43470,2891
43480,1239
43490,1835
43500,1825
43510,1994
43520,1765
43530,1964
43540,1728
43550,2000
43560,1779
43570,2096
43580,1792
43590,2101
43600,1892
43610,2125
43620,1956
43630,2278
43640,1979
43650,2320
43660,2033
43670,2407
43680,2087
43690,2413
43700,1995
43710,2288
43720,1811
43730,2041
43740,1666
43750,1940
43760,1623
43770,1987
43780,1617
43790,1984
43800,1630
43810,2036
43820,1616
43830,2035
43840,1654
43850,2127
43860,1657
43870,2105
43880,1724
43890,2118
43900,1699
43910,2171
43920,1699
43930,2111
43940,1728
43950,2100
43960,1713
43970,2176
43980,1808
43990,2256
44000,1724
44010,2257
44020,2334
44030,2336
44040,2341
44050,2352
44060,2368
44070,2415
44080,1701
44090,2231
44100,1730
44110,2233
44120,1675
44130,2259
44140,1727
44150,2234
44160,1698
44170,2419
44180,2989
44190,2977
44200,1049
44210,2123
44220,1718
44230,2203
44240,1749
44250,2198
44260,1649
44270,2182
44280,1703
44290,2242
44300,1653
44310,2325
44320,1786
44330,2369
44340,1827
44350,2454
44360,1936
44370,2480
44380,1968
44390,2594
44400,1950
44410,2559
44420,1861
44430,2320
44440,1716
44450,2171
44460,1554
44470,2071
44480,1498
44490,2087
44500,1469
44510,2150
44520,1554
44530,2158
44540,1559
44550,2160
44560,1531
44570,2112
44580,1584
44590,2121
44600,1529
44610,2165
44620,1532
44630,2129
44640,1533
44650,2153
44660,1555
44670,2123
44680,1449
44690,2099
44700,1571
44710,2235
44720,1638
44730,2235
44740,1637
44750,2128
44760,1488
44770,2082
44780,1516
44790,2123
44800,1515
44810,2108
44820,1570
44830,2181
44840,1621
44850,2208
44860,1653
44870,2191
44880,1646
44890,2222
44900,1915
44910,3684
44920,2347
44930,1728
44940,1571
44950,2297
44960,1685
44970,2226
44980,1662
44990,2225
45000,1710
45010,2277
45020,2803
45030,2825
45040,2800
45050,2813
45060,2799
45070,2778
45080,2001
45090,2624
45100,2106
45110,2632
45120,2081
45130,2613
45140,2000
45150,2448
45160,1840
45170,2186
45180,1650
45190,2057
45200,1496
45210,2082
45220,1481
45230,1991
45240,1461
45250,1959
45260,1503
45270,2000
45280,1481
45290,2039
45300,1535
45310,2000
45320,1514
45330,2039
45340,1508
45350,2031
45360,1552
45370,1989
45380,1553
45390,2004
45400,1514
45410,1968
45420,1587
45430,2140
45440,1649
45450,2027
45460,1563
45470,1985
45480,1452
45490,1917
45500,1519
45510,1917
45520,1529
45530,1874
45540,1598
45550,1979
45560,1575
45570,1980
45580,1605
45590,2021
45600,1609
45610,2003
45620,1872
45630,3056
45640,2734
45650,1533
45660,1553
45670,2118
45680,1680
45690,2064
45700,1897
45710,1904
45720,1921
45730,1936
45740,1959
45750,2112
45760,1779
45770,2114
45780,1841
45790,2162
45800,1951
45810,2258
45820,2010
45830,2303
45840,2061
45850,2326
45860,2028
45870,2217
45880,1919
45890,2137
45900,1790
45910,1942
45920,1687
45930,1875
45940,1757
45950,1853
45960,1739
45970,1925
45980,1697
45990,1938
46000,1706
46010,1867
46020,2478
46030,2464
46040,2459
46050,2447
46060,2447
46070,2325
46080,2023
46090,2180
46100,2029
46110,2124
46120,2025
46130,2067
46140,1991
46150,2097
46160,2085
46170,2109
46180,2030
46190,2012
46200,1941
46210,1897
46220,1809
46230,1873
46240,1822
46250,1831
46260,1840
46270,1840
46280,1847
46290,1814
46300,1872
46310,1786
46320,1885
46330,1813
46340,1851
46350,2003
46360,2787
46370,3040
46380,1425
46390,1587
46400,1968
46410,1811
46420,1883
46430,1854
46440,1957
46450,1863
46460,1938
46470,1879
46480,2031
46490,1915
46500,2065
46510,1920
46520,2154
46530,2005
46540,2206
46550,2059
46560,2265
46570,2099
46580,2320
46590,2064
46600,2247
46610,1914
46620,2055
46630,1729
46640,1898
46650,1646
46660,1855
46670,1595
46680,1904
46690,1592
46700,1848
46710,1636
46720,1936
46730,1596
46740,1962
46750,1644
46760,1964
46770,1626
46780,1921
46790,1631
46800,1947
46810,1589
46820,1929
46830,1535
46840,1971
46850,1571
46860,1925
46870,1584
46880,1939
46890,1571
46900,1974
46910,1568
46920,2025
46930,1670
46940,2171
46950,1727
46960,2155
46970,1692
46980,2013
46990,1616
47000,2025
47010,1585
47020,2125
47030,2115
47040,2110
47050,2096
47060,2085
47070,2000
47080,2512
47090,2009
47100,2490
47110,1978
47120,2439
47130,2178
47140,3995
47150,2515
47160,1730
47170,1801
47180,2336
47190,1744
47200,2243
47210,1744
47220,2239
47230,1727
47240,2229
47250,1753
47260,2293
47270,1767
47280,2317
47290,1819
47300,2445
47310,1925
47320,2469
47330,1953
47340,2489
47350,1980
47360,2509
47370,1862
47380,2422
47390,1729
47400,2288
47410,1564
47420,2064
47430,1424
47440,2016
47450,1394
47460,1970
47470,1485
47480,1990
47490,1472
47500,2039
47510,1472
47520,2068
47530,1509
47540,2018
47550,1495
47560,2030
47570,1462
47580,2062
47590,1441
47600,2117
47610,1430
47620,2035
47630,1499
47640,2074
47650,1459
47660,2112
47670,1502
47680,2123
47690,1662
47700,2181
47710,1657
47720,2220
47730,1478
47740,2041
47750,1489
47760,2083
47770,1487
47780,2087
47790,1518
47800,2124
47810,1559
47820,2086
47830,1589
47840,2128
47850,1557
47860,2179
47870,1535
47880,2307
47890,2252
47900,3817
47910,1345
47920,1875
47930,1730
47940,2226
47950,1590
47960,2238
47970,1631
47980,2238
47990,1693
48000,2264
48010,1742
48020,2208
48030,2202
48040,2219
48050,2205
48060,2225
48070,2239
48080,2862
48090,2234
48100,2847
48110,2247
48120,2768
48130,2105
48140,2544
48150,1842
48160,2319
48170,1721
48180,2158
48190,1610
48200,2162
48210,1535
48220,2130
48230,1553
48240,2099
48250,1552
48260,2111
48270,1570
48280,2128
48290,1583
48300,2099
48310,1552
48320,2110
48330,1523
48340,2079
48350,1511
48360,2054
48370,1478
48380,2005
48390,1587
48400,2007
48410,1494
48420,2011
48430,1533
48440,2032
48450,1553
48460,2066
48470,1685
48480,2160
48490,1626
48500,2131
48510,1559
48520,1968
48530,1535
48540,2021
48550,1535
48560,2029
48570,1575
48580,2011
48590,1727
48600,2063
48610,1597
48620,2065
48630,1658
48640,2062
48650,1651
48660,2187
48670,2608
48680,3353
48690,1177
48700,1819
48710,1743
48720,2054
48730,1679
48740,2034
48750,1696
48760,2070
48770,1709
48780,2080
48790,1763
48800,2131
48810,1805
48820,2173
48830,1849
48840,2255
48850,1979
48860,2325
48870,1995
48880,2386
48890,2042
48900,2319
48910,1949
48920,2162
48930,1811
48940,2014
48950,1648
48960,1951
48970,1604
48980,1847
48990,1632
49000,1855
49010,1581
49020,2032
49030,2043
49040,2063
49050,2065
49060,2070
49070,2176
49080,2285
49090,1987
49100,2288
49110,1972
49120,2207
49130,2006
49140,2127
49150,1938
49160,2081
49170,1921
49180,2059
49190,1881
49200,1968
49210,1868
49220,1971
49230,1872
49240,1954
49250,1968
49260,2041
49270,1922
49280,1980
49290,1849
49300,1833
49310,1771
49320,1847
49330,1767
49340,1823
49350,1814
49360,1834
49370,1781
49380,1786
49390,1792
49400,1851
49410,1849
49420,2559
49430,2585
49440,2608
49450,2603
49460,3290
49470,2160
49480,1246
49490,1879
49500,1807
49510,1791
49520,1803
49530,1863
49540,1849
49550,1911
49560,1850
49570,1938
49580,1840
49590,2027
49600,1924
49610,2083
49620,1958
49630,2160
49640,2069
49650,2224
49660,2070
49670,2285
49680,2100
49690,2240
49700,1963
49710,2037
49720,1747
49730,1897
49740,1638
49750,1823
49760,1599
49770,1777
49780,1570
49790,1837
49800,1555
49810,1889
49820,1585
49830,1872
49840,1643
49850,1914
49860,1589
49870,1925
49880,1601
49890,1922
49900,1642
49910,1947
49920,1619
49930,1962
49940,1727
49950,1968
49960,1690
49970,1988
49980,1691
49990,2005
50000,1664
50010,1999
50020,2522
50030,2539
50040,2522
50050,2579
50060,2559
50070,2678
50080,2000
50090,2288
50100,1915
50110,2267
50120,1835
50130,2249
50140,1769
50150,2206
50160,1716
50170,2128
50180,1679
50190,2141
50200,1725
50210,2122
50220,1658
50230,2139
50240,1927
50250,3431
50260,2449
50270,1510
50280,1501
50290,2191
50300,1600
50310,2047
50320,1646
50330,2115
50340,1639
50350,2128
50360,1635
50370,2158
50380,1738
50390,2256
50400,1767
50410,2269
50420,1838
50430,2338
50440,1898
50450,2443
50460,1871
50470,2497
50480,1873
50490,2342
50500,1735
50510,2151
50520,1509
50530,2000
50540,1487
50550,1973
50560,1440
50570,2064
50580,1469
50590,1995
50600,1440
50610,2032
50620,1456
50630,2080
50640,1477
50650,2107
50660,1535
50670,2082
50680,1498
50690,2096
50700,1489
50710,2125
50720,1533
50730,2096
50740,1517
50750,2157
50760,1552
50770,2148
50780,1533
50790,2197
50800,1535
50810,2192
50820,1577
50830,2294
50840,1721
50850,2261
50860,1658
50870,2176
50880,1519
50890,2144
50900,1515
50910,2146
50920,1595
50930,2130
50940,1601
50950,2213
50960,1597
50970,2259
50980,1619
50990,2225
51000,1648
51010,2203
51020,2906
51030,2919
51040,2929
51050,2928
51060,2928
51070,2942
51080,1916
51090,2546
51100,1971
51110,2559
51120,1919
51130,2559
51140,1966
51150,2496
51160,1951
51170,2480
51180,1929
51190,2483
51200,1947
51210,2542
51220,2011
51230,2559
51240,2006
51250,2539
51260,1929
51270,2417
51280,1774
51290,2239
51300,1626
51310,2115
51320,1457
51330,1999
51340,1411
51350,1965
51360,1422
51370,2000
51380,1426
51390,2027
51400,1444
51410,2021
51420,1456
51430,2038
51440,1509
51450,2001
51460,1463
51470,2047
51480,1487
51490,1982
51500,1481
51510,2031
51520,1488
51530,2017
51540,1505
51550,2026
51560,1488
51570,2097
51580,1535
51590,2077
51600,1600
51610,2159
51620,1743
51630,2218
51640,1727
51650,2144
51660,1585
51670,2067
51680,1527
51690,2145
51700,1597
51710,2064
51720,1637
51730,2122
51740,1635
51750,2110
51760,1675
51770,2108
51780,1648
51790,2136
51800,1702
51810,2352
51820,2806
51830,3129
51840,1239
51850,1990
51860,1791
51870,2077
51880,1723
51890,2181
51900,1714
51910,2220
51920,1765
51930,2192
51940,1826
51950,2269
51960,1892
51970,2322
51980,1966
51990,2426
52000,2058
52010,2486
52020,2928
52030,2925
52040,2922
52050,2912
52060,2901
52070,2801
52080,2147
52090,2393
52100,1953
52110,2270
52120,1858
52130,2167
52140,1817
52150,2111
52160,1782
52170,2096
52180,1779
52190,2071
52200,1727
52210,2091
52220,1729
52230,2027
52240,1765
52250,2003
52260,1742
52270,1964
52280,1723
52290,1930
52300,1747
52310,1906
52320,1723
52330,1903
52340,1707
52350,1903
52360,1703
52370,1894
52380,1725
52390,1881
52400,1754
52410,1983
52420,1904
52430,1965
52440,1862
52450,1872
52460,1740
52470,1835
52480,1681
52490,1795
52500,1708
52510,1859
52520,1744
52530,1828
52540,1754
52550,1828
52560,1790
52570,1844
52580,1761
52590,1807
52600,1856
52610,2352
52620,3304
52630,1854
52640,1335
52650,1850
52660,1868
52670,1775
52680,1775
52690,1846
52700,1858
52710,1843
52720,1878
52730,1890
52740,1968
52750,1938
52760,2006
52770,1971
52780,2129
52790,2016
52800,2160
52810,2128
52820,2202
52830,2145
52840,2240
52850,2027
52860,2096
52870,1915
52880,1938
52890,1742
52900,1851
52910,1681
52920,1836
52930,1713
52940,1887
52950,1698
52960,1893
52970,1739
52980,1931
52990,1749
53000,1871
53010,1754
53020,2340
53030,2320
53040,2308
53050,2293
53060,2288
53070,2165
53080,2304
53090,2079
53100,2259
53110,2011
53120,2247
53130,1946
53140,2174
53150,2143
53160,2160
53170,2128
53180,2197
53190,1817
53200,2094
53210,1700
53220,1907
53230,1534
53240,1885
53250,1583
53260,1857
53270,1505
53280,1875
53290,1519
53300,1898
53310,1520
53320,2000
53330,1616
53340,2005
53350,1595
53360,1936
53370,1818
53380,3200
53390,2405
53400,1359
53410,1443
53420,2075
53430,1594
53440,2000
53450,1558
53460,2034
53470,1654
53480,2044
53490,1680
53500,2171
53510,1725
53520,2225
53530,1808
53540,2258
53550,1808
53560,2353
53570,1967
53580,2401
53590,1928
53600,2448
53610,1937
53620,2347
53630,1744
53640,2155
53650,1637
53660,2031
53670,1520
53680,2034
53690,1478
53700,2059
53710,1531
53720,2059
53730,1578
53740,2093
53750,1648
53760,2074
53770,1580
53780,2128
53790,1562
53800,2163
53810,1664
53820,2160
53830,1661
53840,2145
53850,1617
53860,2167
53870,1609
53880,2138
53890,1604
53900,2188
53910,1632
53920,2231
53930,1754
53940,2413
53950,1735
53960,2347
53970,1671
53980,2196
53990,1605
54000,2182
54010,1617
54020,2001
54030,2000
54040,1979
54050,1991
54060,1988
54070,1971
54080,2651
54090,1982
54100,2585
54110,1999
54120,2546
54130,2392
54140,4095
54150,2081
54160,1886
54170,1839
54180,2429
54190,1733
54200,2329
54210,1722
54220,2288
54230,1698
54240,2351
54250,1738
54260,2381
54270,1762
54280,2352
54290,1827
54300,2423
54310,1808
54320,2359
54330,1980
54340,2496
54350,1916
54360,2459
54370,1843
54380,2330
54390,1648
54400,2139
54410,1477
54420,2043
54430,1403
54440,2009
54450,1457
54460,1975
54470,1410
54480,1994
54490,1368
54500,1978
54510,1412
54520,2007
54530,1392
54540,2017
54550,1472
54560,2017
54570,1472
54580,2033
54590,1457
54600,2013
54610,1495
54620,2025
54630,1456
54640,2108
54650,1523
54660,2099
54670,1535
54680,2102
54690,1535
54700,2087
54710,1602
54720,2258
54730,1676
54740,2173
54750,1589
54760,2094
54770,1559
54780,2091
54790,1558
54800,2032
54810,1535
54820,2090
54830,1605
54840,2157
54850,1657
54860,2198
54870,1678
54880,2211
54890,1674
54900,2192
54910,1926
54920,3690
54930,2362
54940,1653
54950,1664
54960,2333
54970,1723
54980,2230
54990,1769
55000,2283
55010,1792
55020,2231
55030,2240
55040,2254
55050,2241
55060,2253
55070,2310
55080,2832
55090,2318
55100,2874
55110,2351
55120,2804
55130,2385
55140,2768
55150,2195
55160,2656
55170,2012
55180,2368
55190,1818
55200,2147
55210,1686
55220,2142
55230,1646
55240,2060
55250,1614
55260,2081
55270,1659
55280,2106
55290,1622
55300,2000
55310,1652
55320,2034
55330,1666
55340,1970
55350,1664
55360,1987
55370,1613
55380,1940
55390,1574
55400,1973
55410,1614
55420,1903
55430,1630
55440,1907
55450,1614
55460,1924
55470,1664
55480,1884
55490,1618
55500,1894
55510,1674
55520,1920
55530,1721
55540,2013
55550,1723
55560,1999
55570,1696
55580,1857
55590,1666
55600,1880
55610,1593
55620,1872
55630,1646
55640,1878
55650,1639
55660,1870
55670,1640
55680,1897
55690,1707
55700,1901
55710,1680
55720,1852
55730,2160
55740,3389
55750,1991
55760,1377
55770,1715
55780,1911
55790,1705
55800,1846
55810,1782
55820,1889
55830,1817
55840,1932
55850,1857
55860,1943
55870,1887
55880,2033
55890,1986
55900,2112
55910,2119
55920,2167
55930,2165
55940,2207
55950,2218
55960,2191
55970,2122
55980,2100
55990,1974
56000,1889
56010,1863
56020,2130
56030,2145
56040,2155
56050,2175
56060,2181
56070,2302
56080,2096
56090,2160
56100,2141
56110,2130
56120,2080
56130,2110
56140,2000
56150,2021
56160,1950
56170,2018
56180,1893
56190,1984
56200,1809
56210,1936
56220,1767
56230,1965
56240,1744
56250,1936
56260,1735
56270,1893
56280,1703
56290,1863
56300,1648
56310,1833
56320,1597
56330,1856
56340,1757
56350,1973
56360,1743
56370,1974
56380,1655
56390,1821
56400,1622
56410,1834
56420,1600
56430,1904
56440,1648
56450,1899
56460,1574
56470,1935
56480,1623
56490,1936
56500,1687
56510,1951
56520,1658
56530,2067
56540,2139
56550,3599
56560,1909
56570,1490
56580,1744
56590,2064
56600,1648
56610,2061
56620,1711
56630,2059
56640,1731
56650,2095
56660,1749
56670,2167
56680,1779
56690,2225
56700,1826
56710,2304
56720,1936
56730,2334
56740,1971
56750,2382
56760,1983
56770,2391
56780,1908
56790,2309
56800,1781
56810,2128
56820,1631
56830,2032
56840,1497
56850,2002
56860,1552
56870,1553
56880,1567
56890,1567
56900,1555
56910,2080
56920,1616
56930,2093
56940,1647
56950,2141
56960,1618
56970,2151
56980,1646
56990,2191
57000,1635
57010,2149
57020,2506
57030,2512
57040,2541
57050,2524
57060,2542
57070,2581
57080,1820
57090,2352
57100,1786
57110,2335
57120,1739
57130,2325
57140,1801
57150,2358
57160,1855
57170,2345
57180,1806
57190,2223
57200,1651
57210,2180
57220,1646
57230,2202
57240,1643
57250,2160
57260,1646
57270,2185
57280,1643
57290,2169
57300,1625
57310,2225
57320,1614
57330,2249
57340,1664
57350,2621
57360,3056
57370,2549
57380,1052
57390,2238
57400,1639
57410,2223
57420,1653
57430,2259
57440,1663
57450,2270
57460,1772
57470,2263
57480,1707
57490,2302
57500,1766
57510,2341
57520,1785
57530,2431
57540,1876
57550,2523
57560,1936
57570,2559
57580,1948
57590,2525
57600,1852
57610,2338
57620,1655
57630,2165
57640,1525
57650,2107
57660,1458
57670,2076
57680,1445
57690,2083
57700,1500
57710,2073
57720,1564
57730,2099
57740,1535
57750,2145
57760,1526
57770,2150
57780,1507
57790,2135
57800,1535
57810,2109
57820,1535
57830,2115
57840,1553
57850,2147
57860,1554
57870,2113
57880,1520
57890,2106
57900,1552
57910,2081
57920,1607
57930,2155
57940,1575
57950,2139
57960,1616
57970,2219
57980,1758
57990,2263
58000,1743
58010,2246
58020,2517
58030,2502
58040,2501
58050,2503
58060,2498
58070,2457
58080,1695
58090,2255
58100,1698
58110,2221
58120,1718
58130,2215
58140,1743
58150,2250
58160,1715
58170,2430
58180,2858
58190,3151
58200,1115
58210,2091
58220,1762
58230,2148
58240,1666
58250,2224
58260,1692
58270,2179
58280,1697
58290,2197
58300,1671
58310,2310
58320,1758
58330,2287
58340,1840
58350,2395
58360,1906
58370,2443
58380,1986
58390,2441
58400,1983
58410,2401
58420,1877
58430,2259
58440,1715
58450,2115
58460,1626
58470,2025
58480,1534
58490,1967
58500,1552
58510,1983
58520,1565
58530,2002
58540,1607
58550,2026
58560,1622
58570,2011
58580,1607
58590,2016
58600,1674
58610,2000
58620,1633
58630,2035
58640,1635
58650,1977
58660,1664
58670,1993
58680,1622
58690,1995
58700,1636
58710,1977
58720,1664
58730,2019
58740,1683
58750,2038
58760,1796
58770,2148
58780,1808
58790,2194
58800,1824
58810,1981
58820,1710
58830,2019
58840,1741
58850,1968
58860,1763
58870,1982
58880,1724
58890,1984
58900,1791
58910,1999
58920,1766
58930,2106
58940,1798
58950,2019
58960,2147
58970,3518
58980,2258
58990,1431
59000,1767
59010,2025
59020,2475
59030,2433
59040,2423
59050,2418
59060,2410
59070,2314
59080,1962
59090,2160
59100,2033
59110,2173
59120,2059
59130,2197
59140,2154
59150,2238
59160,2227
59170,2305
59180,2240
59190,2288
59200,2175
59210,2199
59220,2023
59230,1997
59240,1840
59250,1793
59260,1803
59270,1793
59280,1745
59290,1768
59300,1793
59310,1790
59320,1791
59330,1791
59340,1815
59350,1812
59360,1841
59370,1829
59380,1844
59390,1808
59400,1882
59410,1793
59420,1857
59430,1791
59440,1885
59450,1776
59460,1872
59470,1763
59480,1890
59490,1814
59500,1904
59510,1797
59520,1957
59530,1895
59540,2035
59550,1893
59560,2016
59570,1840
59580,1926
59590,1779
59600,1953
59610,1715
59620,1922
59630,1753
59640,1951
59650,1789
59660,2016
59670,1781
59680,2026
59690,1783
59700,2039
59710,1807
59720,2070
59730,2251
59740,3637
59750,2072
59760,1569
59770,1833
59780,2133
59790,1781
59800,2096
59810,1795
59820,2115
59830,1811
59840,2176
59850,1834
59860,2176
59870,1915
59880,2209
59890,1913
59900,2274
59910,1941
59920,2345
59930,2000
59940,2421
59950,2032
59960,2395
59970,1965
59980,2256
59990,1783
